Time (s),Linear Acceleration x (m/s^2),Linear Acceleration y (m/s^2),Linear Acceleration z (m/s^2),Absolute acceleration (m/s^2)
0.345175498,0.33238029484761905,0.05846728167630473,-1.2869142463538095,2.175258775561905
0.361982699,0.5195243018333334,-0.21080875822845718,-1.477169400087143,2.4358057128476194
0.378790804,0.7069348381047619,-0.49285102313321905,-1.5052150657380952,2.625891503895238
0.395600274,0.8674989882333334,-0.6322839898332191,-1.3424436363857144,2.8311893652285716
0.412412927,0.9418737321190476,-0.6284001412427429,-1.1837748855761905,2.9034702092285714
0.429216892,0.9078488123380952,-0.5583433820665524,-1.1239089609828572,2.878759105790476
0.446012578,0.817927610342857,-0.5032573824617905,-1.1100377936066668,2.9436828221714286
0.462833185,0.7139622370904762,-0.44275850340369527,-1.0510654803019048,3.065939802180952
0.479641321,0.6043745677095238,-0.39837463979607624,-0.951055471244762,3.1979135534666665
0.496451412,0.4975724901857143,-0.3388103984722667,-0.8406409208066667,3.3341186804666667
0.513259995,0.43003055032857146,-0.29868608711988576,-0.7541241090923809,3.4090101778476187
0.530052822,0.42358448399523807,-0.2964377005770286,-0.670533908144762,3.3891038248000003
0.546873746,0.43562571215238094,-0.30995094774845716,-0.5261379096209524,3.3381839591809523
0.563678606,0.4348431088433333,-0.32711318133809525,-0.33911313462095244,3.330232818942857
0.580496691,0.41118471971000004,-0.3650043209238095,-0.13977533995428576,3.379227041657143
0.597286751,0.35590489713092194,-0.46483981323333334,-0.011087787906666698,3.3793582692285713
0.614102028,0.27652104702616,-0.6341011495666667,0.09710522358238093,3.3074900723714284
0.630922922,0.18085016530711237,-0.8075743374238096,0.19542482220619045,3.2244516731333333
0.647724079,0.05919401992615999,-0.8943568553238095,0.2499514350585714,3.2098873024190473
0.664524231,-0.08890079312145904,-0.8742139084190474,0.25077166309190474,3.166772034323809
0.681335714,-0.24842339464526855,-0.7701934718,0.3367511871823809,3.0367090475142855
0.698148977,-0.4197988509786019,-0.6027807451619048,0.5312528114252381,2.793752980133333
0.714955812,-0.6350145793595543,-0.408514962347619,0.6993813501109524,2.532553197704762
0.73176943,-0.888175601026221,-0.2222109267190476,0.6978598705966667,2.3230591199428567
0.748574148,-1.1401822225976497,-0.09754354051428571,0.5440378487538096,2.1211130494190478
0.76538666,-1.3118432816928876,-0.04674846933333334,0.4218138215395238,2.0394719794190475
0.782190168,-1.3519827070405068,-0.030961526333333347,0.38112852689857146,2.0830994103333333
0.798997866,-1.298685505230983,-0.0002902363333333443,0.36140146995095235,2.0740943784285713
0.815807773,-1.1869025003071734,0.02408573595238095,0.2549604716652381,2.020074221809524
0.832616887,-1.02509993597384,0.05492846591428572,0.12253957985571429,1.9181226039047619
0.849429692,-0.823371251421459,0.025884297595238095,-0.05393689876333335,1.8033618755238097
0.866230352,-0.6198809033262209,-0.01181823162857143,-0.26472011352523817,1.8201869474285712
0.883043554,-0.44652584623098285,-0.021964443638095237,-0.4886287081871428,1.9777299416666665
0.899850815,-0.2960262752976495,-0.055922943980952385,-0.734679849377619,2.159229042571429
0.916658474,-0.16578969505526858,-0.09186965798571427,-1.0196803666633332,2.3120067366190478
0.933466071,-0.03761023568860193,-0.11405728264761902,-1.3822740629014287,2.4643864815714287
0.95025909,0.14498719712857142,-0.09339147810476188,-1.5490025140442858,2.5866154959523806
0.967085548,0.3994789577571428,0.031693870085714296,-1.3686890858190475,2.8046545246666663
0.983883094,0.6709773653809524,0.1462190236142857,-1.1507619023952382,3.0325177829047623
1.000698189,0.9320073808571427,0.1975604678809524,-0.9862283553904762,3.212066433619048
1.017497994,1.134388969047619,0.21451580098095238,-0.8712289021619049,3.324087764285714
1.034315682,1.2556180953809524,0.21459599193333337,-0.8411268762666666,3.338821901142857
1.051111531,1.3056901296047618,0.19591409109523808,-0.8720135575571429,3.3390089936190477
1.067933481,1.3082058316047618,0.1737586728095238,-0.8642591266714286,3.345985755857143
1.084740844,1.2743363153190477,0.11723236951428573,-0.768865111357143,3.4149049683809523
1.101550609,1.1984391666047618,0.0013474268333333423,-0.6894763254190477,3.5293619247142853
1.118357321,1.0980426469857143,-0.1483940553333333,-0.6507607499952381,3.646532572761905
1.135165651,0.9697613942238095,-0.23542504513333334,-0.43189358147142864,3.8064560797619045
1.15197571,0.829491728747619,-0.29395652813809525,-0.20716403213809526,3.9525821391428573
1.168781659,0.6767216636333334,-0.35222390295238093,-0.02491257304285717,4.067218982095238
1.185590518,0.5170171600619048,-0.4055494311285714,0.04968639213333331,4.145821834285714
1.202388736,0.35632149369999994,-0.3763622627142857,0.13857583773190474,4.202336696285714
1.219211805,0.19566706236666667,-0.3223871148714285,0.2681918598319048,4.153600041333333
1.23601567,0.022778079509523787,-0.28315923753809524,0.4206874994985713,4.02523229
1.252823887,-0.14486465010952382,-0.2264385947190476,0.5503947507842858,3.875084606142857
1.269636946,-0.30645908637619046,-0.18015271711904762,0.6923540604033332,3.693435210619048
1.286430191,-0.4907807623809524,-0.15084130993809525,0.9015721594271427,3.4678140343809525
1.303253209,-0.7394909405714285,-0.15605103405238094,0.9827571653795237,3.3391928667619046
1.320053584,-1.0473549934761905,-0.2651038283857143,0.7960344638928573,3.140918479904762
1.336865648,-1.3642463911904763,-0.36133560686666666,0.6004528943338094,2.927947115714286
1.353673804,-1.6420927275238095,-0.3908288209857143,0.4295671015242857,2.745537434761905
1.370484921,-1.8146597317904765,-0.40648896786190475,0.2959929080909524,2.6196620626666665
1.387290686,-1.8577648572190475,-0.4054657065428571,0.2105203811052381,2.613570668190476
1.404114083,-1.781092621109524,-0.3563485742333333,0.13851883305761903,2.6951056511428573
1.420909625,-1.6046024277761903,-0.27896671926666666,-0.03783777208523813,2.8495522967142857
1.437712848,-1.3451478368238097,-0.17204987158095233,-0.2126879861804762,2.9134682645238095
1.454512368,-1.0582257679666667,-0.017043292580952368,-0.2875313474519048,2.905602500809524
1.471333638,-0.8249258767761906,0.10867464394761905,-0.5302918751376191,2.9638205763809524
1.488143381,-0.630313169347619,0.08786066225714287,-1.1388203983280951,3.149559567952381
1.504945323,-0.3768432253476191,0.01817458435714286,-1.544038829280476,3.1471525389523807
1.521762787,-0.009821551157142863,-0.0843351782095238,-1.4936322143280953,3.1881973508571426
1.53855362,0.40066423874761903,-0.22377103717619046,-1.1689890281709523,3.4577264286666667
1.555374209,0.7356892995095239,-0.35355625136666663,-0.9249178794838095,3.6277582345238093
1.572182914,0.9374997276047617,-0.5097099416047619,-0.8899554389557144,3.6324858798571427
1.5889928,1.0031454450590478,-0.7141998198428572,-1.018937738812857,3.7636785287619046
1.60579819,0.9270823570590477,-0.8427889277238096,-1.0433319330985715,3.857204929047619
1.622606214,0.8117663974685715,-0.8693634074047619,-0.93769034667,3.9516401344761904
1.639420607,0.72147514714,-0.825015689752381,-0.7842633077890475,4.070702455380952
1.656229659,0.6688526245209525,-0.7352352058190476,-0.5383319605985715,4.2429691330952375
1.673029922,0.6264642080447619,-0.6549174133666666,-0.33533987044523805,4.379197542238095
1.689842036,0.5816920826161904,-0.6409820602714286,-0.2584916161242857,4.436210815809524
1.706648575,0.5119345983304763,-0.6188318957142857,-0.17731798898142856,4.50628457347619
1.723466467,0.42094979974,-0.6130164010857142,-0.1607024477719048,4.570092078428571
1.740267777,0.30835975926380954,-0.6309650512619048,-0.13533427387190478,4.605604748952381
1.757072608,0.18407015583523814,-0.7000298344666667,-0.04275763956714286,4.5439997589047625
1.773882128,0.03798777727333337,-0.7811604469285715,0.12907336087095236,4.373452828952381
1.790693824,-0.13110839741714284,-0.8653418947523809,0.2052043357280952,4.2265998815714285
1.807498929,-0.29454501460285715,-0.9579389989999999,0.17622004735190477,4.1218384091904765
1.824306283,-0.4030453590314285,-0.9852871810333332,0.3811433648852381,3.9158722631476186
1.841116596,-0.46870660774571427,-0.9242860107857143,0.7838821375614287,3.5393724870999996
1.857912087,-0.6044206845552381,-0.8393199075428571,0.97464025519,3.3780710382904764
1.874732991,-0.8616667020314285,-0.7054452697809525,0.7460091107138096,3.2230174538142857
1.891540496,-1.1594129062219047,-0.5083744100190476,0.3393353557614286,2.896347664909524
1.908349192,-1.3810296512314284,-0.35807265268571425,0.04338652680904762,2.6759468366714287
1.925183025,-1.4842582656828571,-0.20287838716190476,0.0027360888238095273,2.6276441954809524
1.941967062,-1.4515525499609525,-0.02375912945714285,0.13266386025238094,2.4611564366238095
1.958761811,-1.2609577632942857,0.07625203194142857,0.13072157196666664,2.4010471356238092
1.975583854,-1.001025858341905,0.07060870391285715,-0.1377860448904762,2.494563164195238
1.992378736,-0.729934533389524,0.0074930276509523885,-0.5329439157000001,2.624891417528571
2.009206433,-0.4604630015800001,-0.10185358352047617,-1.0413579344142856,2.6957646651476193
2.026001102,-0.21207094191333342,-0.23783618778238094,-1.5474460323190475,2.8110886489095237
2.0428135,0.017787342991428517,-0.30499162559190474,-1.7083518589857143,2.8255639291
2.059629907,0.3004842258961904,-0.25603898648714285,-1.7259820841285713,2.831258798147619
2.076427871,0.6171385220390476,-0.08193602729190476,-1.606373908952381,2.9729512931
2.093239364,0.9196730568485714,0.04898227685095239,-1.4007516162333336,3.1534402496714287
2.110052007,1.1131483713723809,0.11618080598904762,-1.1977357154428572,3.293550033480952
2.126858038,1.19392549422,0.1781228213604762,-1.038242910547619,3.3997292544333337
2.143665381,1.211455435962857,0.22167521152609526,-0.9140587051190477,3.4439570645285715
2.160473893,1.20720486412,0.2527006389641905,-0.8015273752333333,3.448728012909524
2.177282223,1.2057723090580952,0.23187763142609522,-0.6986080067190477,3.495511611809524
2.194092344,1.2022541591057143,0.17660357914514282,-0.529870206347619,3.5883299443809524
2.210898679,1.1810965992009523,0.13482107582133335,-0.2692856277380952,3.733316712571429
2.227706886,1.1228814806295238,0.08475241281657142,0.047313502880952395,3.9179060923809526
2.244516234,1.018979276915238,0.030376650764190476,0.13432071323809525,3.9677639326190475
2.261325743,0.8754620552104762,-0.015504404888190467,0.06213386285714288,4.076156346
2.278131245,0.7087663241857142,-0.02564248512628572,0.004689880785714317,4.1942982584761905
2.294942505,0.5253656023904762,-0.013650439316761914,0.047884640238095265,4.284488284190476
2.311753082,0.3092727207238095,0.016278256270380948,0.17064489634761906,4.314905880428571
2.32855366,0.0786887577714286,0.0729006110275238,0.4265824783047619,4.187201770190476
2.345364666,-0.1732670693238095,0.1044203703132381,0.7295471174095238,3.99431828747619
2.362175793,-0.4449723561809523,0.14091251935609522,1.0452999358904762,3.795313676047619
2.378971406,-0.7046404566095239,0.21026320759419045,1.3908830852761906,3.5909027448095237
2.395791577,-0.9521386509904762,0.2663960294037143,1.4710898706309523,3.5743503556190475
2.412593294,-1.2276527314190475,0.18294854183228568,1.3997933802690476,3.5594663251428567
2.42941202,-1.5159105573714287,-0.021378235405809538,1.23367106865,3.4207244916666673
2.446206089,-1.7359966550857144,-0.19312950754866667,0.9755243852690476,3.2572663574285716
2.463020543,-1.7860318138952382,-0.3041762390200952,0.6677443351738094,3.225012165761905
2.479833561,-1.6890413193714284,-0.40105596537723803,0.3376396208404762,3.3178699028095235
2.496640132,-1.5382190432333336,-0.39460448067619047,0.029877599697619113,3.489333245190476
2.513432602,-1.3781424931571427,-0.268549479152381,-0.1466833301119047,3.6427891968571426
2.530253219,-1.279684066809524,-0.023657531919047643,-0.21254563380238092,3.779102792047619
2.547068661,-1.257609685304762,0.21920992936666664,-0.5755603999928571,3.930832497047619
2.563871619,-1.188377811842857,0.36004153539999995,-1.2629729117071429,4.1879319493809515
2.580687364,-1.0267098745142857,0.42292952830952374,-1.8424030377071425,4.2211996317619045
2.597490068,-0.7453221139904762,0.41496128705238083,-1.8872706781547617,4.182179084333334
2.61429968,-0.34949236832380953,0.30652654179999994,-1.4620166738214284,4.357786902666667
2.631112943,0.08432617634285715,0.1472391685619047,-1.0359298279642857,4.5912448070476195
2.647915484,0.4685120809142857,-0.015347690714285756,-0.7449356265595237,4.812080245523809
2.664722981,0.7418888182,-0.21607637393809528,-0.711621296335714,4.883990109809524
2.681533487,0.8545684813714286,-0.4607512013,-0.8491705888166665,5.009831469571429
2.698340067,0.8486227307523809,-0.6301970509190477,-0.930287750492857,5.1236804369047615
2.715151469,0.8208494867523809,-0.7112452386761906,-0.8601177510214284,5.207718317476191
2.731957235,0.8185292425619046,-0.7169580628666667,-0.7632667256928569,5.260394677523809
2.748765178,0.8489781788476191,-0.7134686593714287,-0.6080768306666664,5.305197856523809
2.765574821,0.8579048429428572,-0.6690871969904763,-0.45861113068571413,5.3362561314761905
2.78238135,0.8336376689904761,-0.6121005471666667,-0.30997401192380936,5.355495068190476
2.799193798,0.737969216847619,-0.5463388958428572,-0.16084218025714273,5.353660305761904
2.81599984,0.5552338645619047,-0.4688971382095238,0.004292698133333497,5.263421628142857
2.832791893,0.3192418416095238,-0.39990166812380956,0.19836323600000016,5.095235908238095
2.849618228,0.07658009303809525,-0.40811352775666665,0.4165868674047621,4.905908699761905
2.866426935,-0.14583042686666667,-0.5350178252233334,0.5221406561904763,4.759476803857143
2.88323145,-0.27665383472380956,-0.7525502016804763,0.4868300982809525,4.602480266380953
2.900020288,-0.30071703589523807,-0.945295143632857,0.6634543055666668,4.371753961857142
2.916848424,-0.3469971247857143,-1.041877647194762,1.090318827409524,3.9693191536190477
2.933645472,-0.45126052125714283,-1.054064356099524,1.3732253681904762,3.743885412619048
2.95046549,-0.6399070648285714,-1.0035327615519047,1.3672570600238096,3.717683176714285
2.967274267,-0.9177039009238096,-0.8575583752185716,1.051417201752381,3.424814549571429
2.984079017,-1.2025898523809524,-0.6660740601709525,0.7000110418857143,3.0894106983809526
3.000894264,-1.417868387047619,-0.42542376964714296,0.359957483504762,2.845260234095238
3.0176977,-1.5041158766,-0.1579867998376191,0.1497114711714286,2.807416038904762
3.034511168,-1.4620680126857144,0.14112171106714283,-0.09074379297142855,2.9089501637142856
3.05131497,-1.2641157648761905,0.3860594488766666,-0.3982545663047619,3.0462322925238094
3.068124561,-1.0000549270190477,0.5171792308957143,-0.7256331117809525,3.086142909190476
3.084933288,-0.7548501150190476,0.502132066705238,-1.0913291786857142,3.1501055120476193
3.101739054,-0.5486340522095239,0.4412352670195238,-1.452430726542857,3.203388899714286
3.118548715,-0.28090922030476195,0.40920027952428567,-1.6650356976857141,3.208606290857143
3.135358165,0.05155529302857139,0.4922313378433333,-1.6920715300666667,3.303696217333333
3.152166586,0.3747505915523809,0.5867812265195238,-1.6424774570190475,3.4408351309047625
3.168972505,0.6018918356476191,0.6428926814814284,-1.5309483508380954,3.5391962317142855
3.18578705,0.6961248035904761,0.6611188991385715,-1.3570940622285714,3.64144309447619
3.2025913,0.7131770453047618,0.6454607050285713,-1.1919940355380954,3.7455194171904767
3.219400606,0.7069309780666666,0.6125565682809524,-1.031027153847619,3.8511457439523813
3.236209344,0.7328950792190476,0.5442948909761904,-0.7983732578190477,4.007130605857143
3.253015862,0.786594254727619,0.45947170264285714,-0.5484519359619048,4.148053082714286
3.269825484,0.8455895470371427,0.3594721102047619,-0.3389994090428572,4.2360013656666675
3.2866212,0.8830675398466665,0.26889281899999995,-0.19262122963333336,4.256582379238095
3.30342959,0.8903245926561904,0.20619063150476186,-0.1398787157619048,4.225128301190476
3.320246637,0.8682305472752381,0.16312561714761897,-0.1976786794904762,4.237469794
3.337060136,0.7826194763514286,0.12851229167142855,-0.2231735274714286,4.265769428952381
3.353851904,0.6423078492085714,0.10594395229047618,-0.1590322908561905,4.288528241571429
3.370674709,0.46364212042761904,0.10964437895714285,0.0034910710628571285,4.274728402380952
3.387471859,0.29658017848476187,0.08553434557619047,0.37188069741999996,4.063886925190476
3.404288072,0.09381044486571428,0.040812784747619034,0.7620190453485715,3.8209990548571433
3.421105618,-0.15415114442,0.01653717816190475,1.0251986881676192,3.705877760238095
3.437901416,-0.40608864732476185,0.06960125481904761,1.3024487623580951,3.593862635238095
3.45472118,-0.6391332943723809,0.15663802058571427,1.562516458024762,3.494771157238095
3.471524656,-0.9129047847533334,0.1667381951047619,1.690214036515238,3.4522058274761904
3.488331511,-1.2248784246580953,0.04215151639047617,1.6134017465009522,3.3192435456666667
3.505141418,-1.4827173550533335,-0.11141691041904764,1.4084279864057143,3.1893022257619044
3.521950835,-1.5868233952866666,-0.23360029291904766,1.123966874167619,3.1615906326190477
3.538756195,-1.5244599523723807,-0.2711593849619048,0.8294935666914286,3.1112026547619047
3.555564017,-1.3695069948485714,-0.21647731466190478,0.5755969896914286,3.058344281238095
3.572374645,-1.1816263879914286,-0.08603611163809526,0.3151533363104762,3.0539205674761907
3.589183829,-1.0467829250009526,0.12545111345714283,0.03460059711999995,3.0166529003333333
3.605991508,-1.0162382806904762,0.36778138645714287,-0.2932785024990477,3.0138793645238096
3.622797823,-1.056991509,0.5907552270761904,-0.8071254675942857,3.224965613428571
3.639608177,-1.044056006809524,0.6900264195190476,-1.2835540331180955,3.4747019742857144
3.656417779,-0.9316874230952381,0.6964576443238095,-1.5577630443038097,3.6559647412380953
3.673225386,-0.7166794594761906,0.6446352232285714,-1.4591184811704763,3.6973283423809526
3.690029932,-0.38104332052380957,0.49225463756190474,-1.0978031910371429,3.9705570808095234
3.706840174,0.020646594904761808,0.2628145842285714,-0.6993883152714285,4.31568779447619
3.723649897,0.3841519356666666,0.005106227752380946,-0.46154517785714283,4.519231643142857
3.740444982,0.6476979256190475,-0.2613599754380952,-0.5552099687380952,4.646827275238095
3.757265315,0.7589832260904761,-0.4943391567047619,-0.7512609702857143,4.80000320347619
3.774056219,0.778011639995238,-0.5970271059476191,-0.7880070663304762,4.819616434142857
3.790883236,0.7934811002333333,-0.6026698691523811,-0.6685917490923808,4.879569789571429
3.807689988,0.8274998665666666,-0.5628495074476191,-0.5519423428066668,4.929323946
3.824498319,0.8588442576142857,-0.5078495684142857,-0.45529536691619055,4.960331659238095
3.841295184,0.8376038188999999,-0.42404910494761916,-0.3247831747590476,5.018665388952381
3.858117023,0.750941458295238,-0.3443370234019048,-0.14585381180666668,5.040470258857143
3.87491458,0.5847129141476191,-0.26431841223047625,0.041385988364761886,5.013477192619048
3.891730742,0.3721117292904762,-0.23669113145238102,0.1785145486742857,5.018869454857143
3.90853952,0.15443863195714286,-0.28489642765238105,0.28667206418857144,5.016155544428572
3.925345927,-0.05173496961428573,-0.3998885296571429,0.43248489351714287,4.950185138238096
3.942160614,-0.21179816823333336,-0.5686281777285714,0.5284758124361905,4.836414472571429
3.958962861,-0.29330703176666667,-0.7414345457142858,0.6229339241457142,4.685730412238096
3.975775087,-0.29073865060952386,-0.9009020044609525,0.8902874191457144,4.391746955333334
3.992579174,-0.30716296592857145,-0.9390842573990477,1.1550234016695238,4.131890231142857
4.009392762,-0.39588900965238094,-0.8994924568038096,1.302327039669524,3.9980107552857143
4.026201663,-0.5802347545428571,-0.8050068304942858,1.2243000467266667,3.9515010968571422
4.043008558,-0.860771996542857,-0.6246911713514287,0.9108136295932381,3.651067696476191
4.059814436,-1.1867419196857143,-0.38345527935142865,0.5252864616075239,3.2687754311428576
