Time (s),Linear Acceleration x (m/s^2),Linear Acceleration y (m/s^2),Linear Acceleration z (m/s^2),Absolute acceleration (m/s^2)
0.354104129,-0.1778592279352381,1.1464767100761906,0.20668206895904764,1.5417932780999999
0.370906719,-0.12596895686714285,1.0923510860333334,0.23063582465428575,1.4672860159619046
0.387720998,-0.057444198848095235,0.9717746390904762,0.2928419113114286,1.4501630156285714
0.404529022,0.02121030471380953,0.797704314852381,0.3529876527066667,1.4890635626761906
0.421334104,0.09248436102809525,0.6049743819476191,0.38117994578285713,1.5629281484857143
0.438129809,0.14342888801857145,0.42800178837619046,0.39096269150571433,1.6225734492
0.454949101,0.19462545892333333,0.26568215656666666,0.35235936300095244,1.6214127243904761
0.471755609,0.25259593734238095,0.11678237430952382,0.2810105823419048,1.591356870057143
0.488557763,0.31612089881380956,0.005236462457142861,0.21370270141809528,1.5807457081047618
0.505356925,0.3837371898233333,-0.06304545773142857,0.19482712521333334,1.5764983661999998
0.522179067,0.4364243153947619,-0.10956550923142858,0.21793815070380954,1.5873459173428572
0.538996592,0.48608793289,-0.1740474885552381,0.2919380551561905,1.6584170555904758
0.555792539,0.55223061859,-0.30757771360285713,0.3741921924657143,1.7403220063047617
0.572603075,0.6153815580804762,-0.4613305287457143,0.3904116948704762,1.7642977753047622
0.589407487,0.6674941501995239,-0.5821906654361905,0.3281009765180953,1.7627221961619048
0.606215651,0.7111937723566667,-0.636711117764762,0.2308858463038095,1.7979328266380954
0.623020745,0.73078798402,-0.6266459851219048,0.10325913205619049,1.8731706660190477
0.639830913,0.7420548343104763,-0.5934379980647619,-0.03901508870571429,1.8998938241142855
0.656638041,0.7481475643295238,-0.5388204228219048,-0.16025075453904764,1.8688634588761903
0.673444986,0.7480502469723809,-0.46779873112666664,-0.2413959502552381,1.8375948147333334
0.690250791,0.7523925773247618,-0.41933091052666666,-0.2724088032409524,1.847864304219048
0.707058844,0.7662888595538094,-0.40546914932190475,-0.24690691623509528,1.8513938526190479
0.723867763,0.7637916605179048,-0.38244438877904763,-0.24110217314985716,1.873164576304762
0.74067491,0.7120097081369524,-0.30132557235523805,-0.2818195251550953,1.8438179324190476
0.75747859,0.6289569111369523,-0.15601180416476193,-0.3350938160355714,1.7794951672285715
0.77428934,0.527529004108381,0.027318890644761926,-0.3960907798974762,1.7092278369428573
0.791095287,0.43878896182742855,0.2010589370257143,-0.4183827808060477,1.6645111933238095
0.807904378,0.37954454056076187,0.3262467597876191,-0.3843552724965238,1.6383928863714285
0.824710629,0.3160996139464762,0.42522106718761904,-0.3237956364441429,1.629731426085714
0.84152434,0.22011505282266663,0.5229534947542858,-0.247576486467,1.6409443963714285
0.858327408,0.11401620791790473,0.6133042503714285,-0.20607939217652382,1.6732037534190478
0.875134138,0.0044097318226666475,0.688212904247619,-0.20125852309557146,1.7020836406571427
0.891940137,-0.10541998349638096,0.7535746339333333,-0.22673729485747623,1.6755298383238095
0.908748476,-0.20913565870590478,0.8430696797238096,-0.23164272304795241,1.6381433772761904
0.925544953,-0.3032180738154286,0.933850301204762,-0.18381931662414286,1.635852076942857
0.942363718,-0.39116800828209525,1.0004378543428571,-0.05693812590033333,1.658508283085714
0.959169981,-0.47124218802019047,1.0261076490476189,0.12271438333776191,1.6597829365142855
0.975978879,-0.5204702715392381,1.0203896506190477,0.3486267272425238,1.665512025561905
0.992788783,-0.5518391146868571,1.0034013504761905,0.5586185001949048,1.706638926704762
1.009591527,-0.5705955710059049,0.9704950651142857,0.7715211596472857,1.8279737391809523
1.026388604,-0.551858481948762,0.9192564771680952,1.0063353947920477,2.0088213604190477
1.043213686,-0.4905470965011428,0.8637594893252382,1.2271943319968095,2.1981401956952378
1.060012125,-0.46578970131066666,0.7889118422014285,1.3896105630719047,2.330172232804762
1.076816711,-0.48412825952857136,0.64313808513,1.4510384514771428,2.4236890327333334
1.093635965,-0.49167872899523807,0.41986182479190476,1.440139498082381,2.5721580198095237
1.110436774,-0.45573454532857144,0.14694228345857147,1.369495618962857,2.748376938904762
1.127247066,-0.38322732851428565,-0.10643141887476187,1.2611231804533334,2.9078554223333333
1.144048182,-0.29590589097142855,-0.2991115620652381,1.1080389931628571,3.054978548095238
1.160862216,-0.20885355420952378,-0.43230000277952374,0.9156298183771429,3.2183852921428575
1.177668073,-0.10592340578095236,-0.5419432691128571,0.7154378891342856,3.367214339952381
1.194475242,0.006890401885714315,-0.6592618936461905,0.5209898494904762,3.474383593
1.211283741,0.09526204487619051,-0.7848621521509523,0.3683141526904763,3.534011361428571
1.228090422,0.1751828590428572,-0.8873196130366665,0.22712055845238097,3.579111322190476
1.244884325,0.23866948053809525,-0.943028542222381,0.06484024869047623,3.609457325380952
1.261705653,0.27873217911904763,-0.9857865926414284,-0.10771394907142853,3.59828105047619
1.278514186,0.30721932501904764,-1.0396977165985715,-0.2671177046428571,3.581827190047619
1.295320753,0.3404576054142857,-1.0926434922414285,-0.3882541429380952,3.539684131428571
1.312126894,0.385123025752381,-1.1304984816099999,-0.4806322143190476,3.449012588228572
1.32893334,0.42879284274761914,-1.128846734752857,-0.5806281907428572,3.3741093476095236
1.345740579,0.4588425740857144,-1.079765068657619,-0.6819303376619048,3.3386514371333336
1.362562946,0.4550099088619048,-0.968164751962381,-0.8097500347095238,3.2994709501333337
1.379344653,0.4157798886,-0.8346735480638094,-0.9447632517095237,3.2235163842285717
1.39616236,0.3571793890952381,-0.7246901719733333,-1.0749050548999999,3.120431083038095
1.412965967,0.343315291952381,-0.6155517513352381,-1.1900990577000001,3.0379815614190475
1.429780317,0.3739931909571429,-0.42445813619238093,-1.2258193833428572,2.9948296930857143
1.446594922,0.39606043481238096,-0.15137370576380946,-1.1765321776904762,2.900140036371429
1.463392122,0.3705394118790476,0.15402903861714287,-1.1048860776905716,2.7511696316571426
1.480218566,0.3039402869266667,0.4232957972361905,-1.0269791739286667,2.6131711193714287
1.497009164,0.2114796347171429,0.6354096601885714,-0.9477407818810475,2.522538733847619
1.513808347,0.10896927894095242,0.8182404593790477,-0.8482176689762857,2.4510652831809523
1.530619482,-0.007764396963809494,0.9826405941409524,-0.6922435760239048,2.366180798609524
1.547434687,-0.11982615863047616,1.1305290331980953,-0.5203676450572382,2.287110966514286
1.564241754,-0.20764482381142854,1.2671769785600002,-0.31574208391438097,2.24580909727619
1.581043643,-0.2772424228638095,1.3732724004457144,-0.06219652715247624,2.262253525038095
1.59785081,-0.3030929913638095,1.4314447697361905,0.22093879613323802,2.331662157704762
1.614655985,-0.29411916155904755,1.460462814209524,0.47083339241895233,2.4098992398
1.631465819,-0.19671105987333332,1.4014332974952382,0.7793498493713332,2.5976070330380954
1.648278124,-0.05968441498285711,1.2763104012142859,1.0880001840475237,2.87538758627619
1.665082331,0.046136577155238126,1.1386284514923812,1.3311197417618092,3.1508461833809527
1.681887924,0.05314012291238098,1.00284252554,1.503532296185619,3.3017875379523813
1.698700138,0.023733034664761933,0.8024864167304764,1.7029487292475238,3.443794705285714
1.715503359,0.03551670263619051,0.5326112876828573,1.767145406676095,3.4694904605238097
1.732318482,0.07443105670761907,0.2673643968257144,1.7112655866951432,3.4539628696190467
1.749117382,0.16116742926000002,-0.014447464936190388,1.6242832229560953,3.540802563095238
1.76592759,0.27204509356952383,-0.2884804039838094,1.4263921011370475,3.7384105115714283
1.782734739,0.3204038334171429,-0.5410383969361904,1.254143328922762,3.8868878226190473
1.799530565,0.43397682759523815,-0.7602363229838095,0.9485507692941905,4.116124815428571
1.8163523,0.5613051127666667,-1.0511370642695237,0.82249530158,4.298245886238095
1.83315542,0.6053022706619048,-1.3493521072219046,0.7620572589609522,4.4510640316190475
1.849963493,0.6378903580523809,-1.5630940397933333,0.7495510010561903,4.491935953333333
1.866772126,0.6628879642238095,-1.8065151402219048,0.6859851337704761,4.560734304904762
1.883582164,0.7519785385761905,-1.5775975528409523,0.6477201552942857,4.774275969
1.900373899,0.9549959607190476,-1.3675401466504762,0.4824461028990476,5.047875475761905
1.917195066,1.116021660861905,-1.2107723242219048,0.3226352192323809,5.230328854238095
1.934003639,1.175492192347619,-1.110953901555238,0.13318590889904758,5.270217736809523
1.950800297,1.0966191881,-1.1942294297409524,0.04301868166095235,5.222498421190476
1.967597813,1.125455656952381,-1.2569348897761905,-0.18739561810095243,5.15324182752381
1.984423312,1.0434912649033332,-1.1779864388380954,-0.44863980158666666,4.914226264504761
2.001220033,0.9051237553414285,-1.0527754639238096,-0.7095894813676191,4.620541948271428
2.018036326,0.7667070705557142,-0.91621806652,-1.0650333223200001,4.461372161080952
2.034848489,0.7687166056795237,-0.7587479707580952,-1.2462581907342858,4.331655153128572
2.051653359,0.8401591742747618,-0.5080775036152381,-1.404484430972381,4.261043957747619
2.068462765,0.8935538779176191,-0.30720080785333337,-1.4461365200676188,4.2167386980809525
2.08526683,0.8658214375176191,-0.1320453924152381,-1.4704507192438097,4.119880596033333
2.102077366,0.7193976236652381,0.15333025944190476,-1.4601539884761905,4.00583251922381
2.118879885,0.6469674614747619,0.4109968700133333,-1.2175241879523808,3.842764748128572
2.135694713,0.6069130081985714,0.5878537241433333,-1.1585563705714286,3.698428757652381
2.152499786,0.4494801681938095,0.8349418953338095,-0.9400651114761904,3.5090850670809526
2.169305531,0.3653640470414286,1.1350549715719047,-0.8175153505490476,3.3381735953190477
2.18611339,0.3741910287414286,1.3362325203480951,-0.6639279865204762,3.1424777078428576
2.202922085,0.35231575229380957,1.4587957575671429,-0.5426733607395239,3.011508880385714
2.219728612,0.36339680071761904,1.5957273827242857,-0.3610329401157143,2.806798548657143
2.236526574,0.352597116022381,1.268616575619524,-0.20027821406809526,2.519460247990476
2.253341027,0.26151657530809524,0.96045899821,0.09251049583666668,2.237252823847619
2.270153301,0.2355872151176191,0.7537115344480952,0.27799597240809526,2.0554102178
2.286958161,0.3408258741366667,0.6436041069242856,0.4711469468842857,2.05625449327619
2.303765929,0.547814935422381,0.7159700408671428,0.5585598264557143,2.135280479704762
2.32057621,0.5678818892509524,0.7357757163147618,0.8075625555985714,2.2363852663714288
2.337383063,0.5800497418000001,0.5923191678528571,0.9926534834652381,2.4367056143904766
2.354184729,0.5438107691714286,0.43872289436714285,1.0982052031509524,2.622658723052381
2.370996077,0.5188265655285714,0.25258329943952385,1.233417442917619,2.6934129833857146
2.387803521,0.44823264220000003,0.027634881820476194,1.1363188880461905,2.7995940093857143
2.40461076,0.36919419533333336,-0.25741012889380954,0.9356827055223811,2.798988683671429
2.421409852,0.3137562444666667,-0.3827246029890476,0.7308959053319048,2.7887607093380957
2.438224608,0.3368868770571429,-0.44568066367,0.5901278087747619,2.865541352242857
2.455047655,0.43268787005238096,-0.559800962574762,0.46464999522238093,2.891090709576191
2.471840461,0.45137822338571437,-0.6272382069080953,0.2749734152700001,2.894903185385714
2.488646215,0.5206866533285714,-0.6229599089714286,0.2804468019842858,2.9269182318142857
2.50545553,0.654445413952381,-0.7076778780714286,0.2541501863652382,2.917504842861905
2.522258497,0.7015139275333334,-0.763912337152381,0.20300967362857145,2.9196769330047623
2.539066419,0.7293703399190476,-0.7102943885714285,0.10894069226666674,2.9398082974809525
2.555878469,0.7829686359904762,-0.6571190186714285,0.034143743152381,2.9709510392714287
2.572682748,0.8079517270000002,-0.6192474804952381,-0.051831040995238054,3.032187200952381
2.589494058,0.7906990760009524,-0.6104507332571428,-0.16998979018571422,3.0226740936666667
2.606297146,0.7369205582014287,-0.6097990245857142,-0.2865540867142857,2.9231012723904763
2.623109025,0.6553151748919048,-0.6600348587285714,-0.35219403671904753,2.807172857795238
2.639913537,0.5346564139347618,-0.7104218495619048,-0.47587060926,2.634532801471429
2.656722791,0.4196677292747619,-0.7040756351761905,-0.6524308749257143,2.4550918732047617
2.673527976,0.37563013177000004,-0.6323460404238096,-0.8413458551266666,2.2833040064571426
2.690332693,0.37612132513190477,-0.43320738202857134,-1.019376323307619,2.0877406356190473
2.70715391,0.45257079315571436,-0.19234548931428574,-1.1549777303361903,1.9234080015238095
2.723945829,0.5438793443414286,0.05757982887619048,-1.2000034195980953,1.797676034666667
2.740758409,0.6183474262414286,0.25416248400952385,-1.1670362835980952,1.691497347190476
2.757569687,0.652354041722381,0.4425258884857143,-1.1081983021219048,1.5988915996190476
2.774361242,0.6601031592795238,0.5310735922428572,-1.011850084555238,1.5217198557619047
2.791181023,0.6305332893176191,0.6053683835809525,-0.8749197550980952,1.4501303058571429
2.807987968,0.5904324934271429,0.6786171985333334,-0.7645933287147618,1.3807255925714286
2.824797607,0.53365020097,0.7493596396285715,-0.6744131814719048,1.3169715756190477
2.841605905,0.47067805272714286,0.7762022167428572,-0.5466236841147618,1.2597498705238095
2.85841051,0.4195789141366667,0.7454721225138096,-0.3552015849719047,1.2551864942857143
2.875206784,0.38765340333666676,0.6804589494328572,-0.17511994501952374,1.2925374973809522
2.892026932,0.37035050704142863,0.6413016950757143,-0.0483189083528571,1.302178639904762
2.908832565,0.36763483995571433,0.63724530949,0.029507909480476244,1.2666146194809524
2.925641075,0.363256620512381,0.6409403461709524,0.1132792518280953,1.2181109133761905
2.942445661,0.3862397315971429,0.6059046550804762,0.2483723958280953,1.2449466784238095
2.95925935,0.4296712378680953,0.5152323607709525,0.45266541978523817,1.4370673694142855
2.976050515,0.4753949088919048,0.3832067960566667,0.6974887847900002,1.7129526913904762
2.992863381,0.4991600982014286,0.2141048993185714,0.8694150561404763,1.9259624850000001
3.009680884,0.4964041993964763,0.05138865819476191,0.8954040890680953,2.027344107457143
3.026469681,0.487724742740762,-0.062276686957619044,0.8136569431738097,2.1227323033
3.043280685,0.49477626030742866,-0.1481266135433333,0.7028584934500002,2.223890896995238
3.060105807,0.5029788244550476,-0.2268359037052381,0.5951335770976192,2.2981331531857143
3.076902651,0.5213433192074286,-0.31808691083857144,0.5538285346404763,2.3154317334238095
3.093728069,0.5391971298836191,-0.4090961672195238,0.5798095294642858,2.307493466042857
3.110523172,0.5602800874693334,-0.5379549492195238,0.6289500508976191,2.3011042222333336
3.127332263,0.5631041044502857,-0.6276722607385714,0.5878800664738095,2.336289819709524
3.144139788,0.5773562164788572,-0.7080599041480953,0.4444826216833335,2.409867287280952
3.160944586,0.5945868293693334,-0.7799142712766667,0.31197152815714296,2.4911457096619047
3.177753707,0.6134555411026666,-0.8648251919861905,0.2341208457714287,2.5272624092809526
3.194556563,0.621706209036,-0.9275113713480952,0.15034582499047633,2.5209534232809525
3.211383811,0.617481522640762,-0.9497620747523808,0.011560371933333449,2.4513419404714285
3.228174897,0.6074377766931429,-0.9059971060428571,-0.1547107015285713,2.3692178796142858
3.244977162,0.6139208234740953,-0.8620911382857144,-0.2711555617190475,2.3490114787571432
3.261789366,0.6237431679693334,-0.8668443021714286,-0.3518975348857142,2.3844627766571427
3.278596097,0.6387927120888571,-0.873213558004762,-0.4129084405666666,2.4129577755238096
3.295407589,0.6292294391840952,-0.8321192605476191,-0.5333899316523809,2.3772941310952382
3.31221201,0.5960264844840952,-0.7425287621571429,-0.7410861197047618,2.190044368747619
3.329019616,0.5721237844031429,-0.6085236526857143,-0.9832560902809523,1.9338068558666666
3.345827638,0.5584015817936191,-0.41920458137619054,-1.158808503860476,1.7428295627333334
3.362635265,0.5463117162442858,-0.1990827151857143,-1.190813813917619,1.6997565414476188
3.379440826,0.5253184366857143,-0.0008508989000000289,-1.1375250816461904,1.6926916604476192
3.396237761,0.49287728327142866,0.13309133052857142,-1.0260922568509523,1.6367375447333334
3.413058581,0.4632066303819048,0.1915724249142857,-0.8914004735052379,1.534570759442857
3.429852768,0.43395668410571436,0.21485359825238096,-0.809108824995714,1.4618992292666666
3.446670445,0.4265751966438095,0.2754981084952381,-0.7954714185099999,1.4342163801619048
3.46346916,0.43616262077714285,0.41477215506666665,-0.763012795257619,1.4357033315428571
3.480286145,0.45774890553428577,0.5354943240190476,-0.6390210560671428,1.4564208848285713
3.497094961,0.4943229797533334,0.5639681184795238,-0.3866104171623809,1.4688247510666668
3.513897014,0.5031576767057144,0.5554917533033333,-0.10436605273380943,1.4826689156380952
3.530694171,0.49954940167714285,0.5737029236271428,0.12237875798047625,1.5302668451619048
3.547520739,0.5422400817961905,0.5747114001557143,0.2876769928328572,1.6241355529714285
3.564327277,0.5798701544485715,0.5672838070842857,0.3933128628900001,1.6865135585428572
3.581126072,0.6068171333390476,0.5259725969747618,0.5031009855423809,1.7274648740666667
3.597944116,0.6483294467057144,0.4282978837414286,0.644709632494762,1.8065207698285715
3.614738375,0.7097054861866667,0.29956986299857147,0.8768882297328572,1.9402570885428574
3.631562216,0.7588132038104762,0.15364055481761904,1.0691888900185715,2.0685400017809523
3.648365316,0.7938393170009524,-0.012128304110952368,1.1272576650138095,2.1650379149714287
3.665169238,0.8080602557961906,-0.13932791988238094,1.025223981780476,2.3071817133666666
3.681977597,0.79829897342,-0.20388127149666666,0.8292746316899999,2.474305244580952
3.698781775,0.7989246050580951,-0.2599170143680952,0.6528853461742857,2.6093461749999998
3.715595657,0.8477299114152381,-0.3684803552109524,0.5406550452552381,2.647845346285714
3.732398776,0.89903135102,-0.5079310756014286,0.497175148507619,2.6191430537142857
3.749208733,0.9238071101152382,-0.6348735853204762,0.4627275239504762,2.605355784666667
3.766012309,0.916812964857143,-0.7271822683538096,0.39557795293809533,2.658326293004762
3.782808471,0.8818955535095238,-0.7669496010871429,0.3183567637142857,2.7248488754190476
3.79962744,0.8149828797428572,-0.7944948601966667,0.24285375502380951,2.7830734233809524
3.816436185,0.7165301754571429,-0.8304664251157143,0.11823745000476192,2.8231844948095235
3.833242061,0.601341775504762,-0.8426729852109525,-0.029781023709523787,2.833608665666667
3.850056034,0.4782661880761904,-0.7911575677857143,-0.2445916448523809,2.8016878115238093
3.866858046,0.3766306127904762,-0.7128149739571428,-0.4658586638523809,2.7537311374761906
3.883656548,0.2940492317857143,-0.6299224127142857,-0.6278829347571429,2.697271715714286
3.900471833,0.17861300141904768,-0.5082488457761904,-0.7448563575857142,2.6489391146190475
3.917295705,0.07177299832380957,-0.36952268511428565,-0.8117828596190476,2.6509714119047616
3.934090168,-0.020349062571428534,-0.25571013064761905,-0.8883738972095236,2.650546362
3.950881161,-0.1380937695190476,-0.12892912117142855,-0.9934586797771429,2.586713753428571
3.967701016,-0.2550219268809523,0.018428791114285737,-1.146860281658095,2.439956816904762
3.984518285,-0.3401574038190476,0.1951131196380953,-1.253342287924762,2.317614915285714
4.001316339,-0.4024095052619047,0.41342061473333336,-1.245230243362857,2.2591107403809523
4.018126091,-0.45998373200476184,0.6065309502095237,-1.1040856952152378,2.1811226437142857
4.034930929,-0.5152446854523809,0.7274371102095238,-0.9025059427866666,2.060321269952381
4.051743744,-0.5664094657952381,0.7978427438666665,-0.7035998617057142,1.9505071223333335
4.068555257,-0.6298855741666666,0.8604713394714286,-0.524426982515238,1.8984202720952381
4.085356718,-0.6812805334619048,0.9190283843666668,-0.3549623488961903,1.9119322539047618
