Time (s),Linear Acceleration x (m/s^2),Linear Acceleration y (m/s^2),Linear Acceleration z (m/s^2),Absolute acceleration (m/s^2)
0.346507036,0.36340234396380955,0.8010552042428571,-0.2331482661995239,2.6847082672809526
0.363314033,0.4912034216304762,1.0785650525285715,-0.40416062239000006,2.615817664757143
0.380124235,0.5845597131066667,1.3798666908142858,-0.5594929720090477,2.5717784974714286
0.396929024,0.6489022573019048,1.673098019147619,-0.7002101661995239,2.5362236849000004
0.413735095,0.6922118777495239,1.921074163290476,-0.8223684154376191,2.511055791280952
0.430551238,0.7416542144190476,2.0319395973238095,-0.9238801776757144,2.547836849233333
0.447354308,0.7956658999095239,2.016179130147619,-1.015674532242381,2.560043313852381
0.464164042,0.8579380625714286,1.9106340862123812,-1.0998310851852382,2.5309114247095237
0.480972616,0.9342717897380952,1.7297533807361904,-1.1592263757423809,2.508306807709524
0.497780498,1.0107108070809523,1.5603442873076192,-1.1909963269280954,2.523155270757143
0.514587769,1.0779091516952382,1.4279660269742858,-1.1930532881861904,2.5880450125190477
0.531391349,1.1635730152666666,1.325051534669524,-1.1647351753814288,2.685064630714286
0.548212537,1.2661852609190476,1.1999506722695237,-1.1185580904242858,2.7800803634761904
0.565009991,1.3798782938857141,1.0155900318885716,-1.0687105088576192,2.8567737393333332
0.581809054,1.4951232274238095,0.7828544207457144,-1.0295952303719047,2.9155485214761905
0.598617282,1.5912869317238096,0.5394478070790476,-0.999077237857619,2.9460108105238096
0.615441246,1.6435259183476187,0.3341916856028571,-0.9726870230957142,2.921101388904762
0.632229304,1.6521091007285715,0.2069409688211905,-0.927054663557619,2.8320390755238094
0.649051905,1.6446906952857143,0.15089389258309524,-0.8739548595671429,2.762266943761905
0.665862706,1.6306069464952377,0.10459606986880955,-0.8032143336242857,2.6932239393333335
0.682671077,1.6177991912523813,0.031627496073571446,-0.7280402084495238,2.6021757150476192
0.699475358,1.6134239151571428,-0.08304468789309523,-0.652728756997143,2.5076969335238095
0.716281287,1.5997099876761904,-0.22147294453119049,-0.5677224568066667,2.4171599191904765
0.733097459,1.5733699117714284,-0.36584929055976195,-0.44719761894,2.306199727342857
0.749902992,1.521718729142857,-0.48355300082738095,-0.3024493058447619,2.2148451947238095
0.766710283,1.4413278443809523,-0.5735098066416667,-0.1598730654638095,2.1713797814380955
0.783516558,1.3249647958095239,-0.6302621705035714,-0.03438722517809524,2.1688670166761903
0.800327208,1.1721733865714286,-0.6569972265178572,0.06629602681714288,2.1857958697238096
0.817140156,0.9782232103333334,-0.6597386087530953,0.14386849459809525,2.209659520342857
0.833932107,0.7608663922380953,-0.6109705198407143,0.1957901602647619,2.2205746335333334
0.850754475,0.5270641190952381,-0.5605383146264286,0.2288059166457143,2.2358355762
0.867557108,0.2842608066190476,-0.5142025947264286,0.2451698822604762,2.2518714122952384
0.884366485,0.034009785952380946,-0.4813142503550001,0.24865332387476194,2.2648341145333335
0.90117443,-0.22744609052380954,-0.4496375719264285,0.26102434595095236,2.2736182750095235
0.917985892,-0.5071751276190476,-0.39228491549785716,0.29425054220333335,2.2696282094380953
0.934793041,-0.7980084191904763,-0.3216151509264286,0.3517241477938095,2.2551281914380956
0.951604962,-1.0787657556190475,-0.26216888421214285,0.4130780412985714,2.249942798295238
0.968407076,-1.3222566900000001,-0.2613563991169048,0.4720652656842857,2.2911562307714286
0.985217135,-1.5208000569523807,-0.3814732914304762,0.5210873697461904,2.4042051746761905
1.002023634,-1.674996977795238,-0.6569788114780953,0.5859284457652381,2.569856268152381
1.018840549,-1.8162749949095238,-1.0343647683828572,0.6766506922985714,2.8151234711047617
1.035639774,-1.9826896417619049,-1.39430450254,0.7821577389809524,3.1134230890571426
1.052447138,-2.1794606730952384,-1.691386949430476,0.8935239534809524,3.417749434295238
1.069256953,-2.3427055336142857,-1.9735120364590475,0.9910084675761904,3.721665523438095
1.086052445,-2.438107728947619,-2.2448915527161906,1.0355078421380952,3.9922255040952384
1.102869369,-2.456543752114286,-2.4942526363533335,1.0203251994190476,4.188712402190476
1.119685054,-2.394344590947619,-2.7159682910152383,0.972750934747619,4.3140132147142864
1.136475348,-2.278647275185714,-2.8664256732009523,0.9402801237666667,4.366343473095237
1.153298773,-2.1437757923285714,-2.90067182272,0.9540477408619048,4.359498805190476
1.17010278,-1.9896590028238097,-2.834240595549524,1.013531209404762,4.376297321761905
1.186923785,-1.8119469483,-2.709701810604762,1.0904838938761905,4.424748785238095
1.203723407,-1.608053161919048,-2.558558713866667,1.1500842215714286,4.460301405857143
1.220533426,-1.391082468395238,-2.4093194689571424,1.1851041259238095,4.463529158333333
1.237332671,-1.164124250347619,-2.2797450111380955,1.2095567625619048,4.439196873238095
1.254148345,-0.9352987152523808,-2.1530791691857143,1.2165174554238096,4.39131727147619
1.270951294,-0.7302123363952381,-2.0234548705666664,1.1926707808928572,4.3138218458571425
1.287761729,-0.5148466881095238,-1.886582351947619,1.1404186642357144,4.243271896904762
1.304558889,-0.29345942663333335,-1.7193873497095238,1.07182060955,4.205827105428571
1.321380016,-0.0688552854904762,-1.508327030090476,1.00050960545,4.201046444857143
1.338189516,0.15191418798571427,-1.2427848180904761,0.9053977074214286,4.203849509904762
1.354994203,0.3582020828904762,-0.867286477852381,0.7519163828880953,4.177306324238096
1.371803693,0.5671864124619048,-0.40039745970952384,0.5242012255547619,4.090567362238095
1.388613742,0.8077507247,0.07641674219523813,0.24779931979285716,3.996756384285714
1.405419569,1.0788521426523812,0.5187348638142857,-0.05232493944523808,3.9100848582380947
1.422226536,1.3189040593190478,0.9400687217666667,-0.35103210673095236,3.8040726037142853
1.439042841,1.4885933058904763,1.339199384052381,-0.6374048818261904,3.7391511724761903
1.455845351,1.5891218753142857,1.7003375235285718,-0.8813701896785715,3.7233600209047615
1.472652918,1.6306393827904764,2.0127611614809524,-1.0864318808166666,3.7274902457142853
1.489459437,1.6410351594571426,2.226747830719048,-1.2734064857404763,3.750690599809524
1.506265671,1.6648271311238094,2.2917483193619046,-1.461504893645238,3.7942522801428566
1.523076045,1.7070657866666665,2.224751358962857,-1.6409206986452383,3.7767204328095234
1.539883816,1.7479610443333333,2.0769210316009525,-1.7873315101357143,3.713811071238095
1.556679562,1.7875395161904764,1.9045132682628572,-1.8813934978738096,3.658617512428571
1.573503953,1.8315053894285716,1.7469266028866666,-1.9158224576547618,3.638324036238095
1.590308642,1.8637590067619048,1.626356397367619,-1.9099401831166667,3.645067458047619
1.607118447,1.8839961460476191,1.50511262532,-1.8812308935642856,3.664944042523809
1.623926949,1.914503142904762,1.3644094921295238,-1.8321204241857143,3.6925952695714286
1.640735056,1.9270226728095237,1.2026267278438094,-1.789157489895238,3.7001111622380956
1.657544128,1.9336083275238094,0.9902703647961905,-1.7702073795238096,3.696383039666667
1.674349985,1.92968497947619,0.7284470058438095,-1.7767519070952382,3.689805000095238
1.691157797,1.9042317752857145,0.47641297746285716,-1.785116998904762,3.653890571047619
1.707964061,1.8711747100476193,0.24152267541523811,-1.7716718712857142,3.5720282912380945
1.724762309,1.854370400904762,0.04149189442476189,-1.724147385,3.464222041761905
1.741583122,1.8599149157619046,-0.13197197238952382,-1.6130951330000003,3.338990447714286
1.758391868,1.8746479691904763,-0.28336411437523806,-1.4456589760333334,3.212640200619048
1.775201763,1.8907090594761906,-0.42705111282285707,-1.2463642968095239,3.100429927428571
1.791994571,1.895051956095238,-0.5762471698990476,-1.0067658466190477,2.9600975655714286
1.8088035,1.8646842070380951,-0.7327962376323809,-0.764745648361905,2.7924283002380954
1.825623365,1.7945956388380953,-0.8837990080085713,-0.5532508222380953,2.6351569300952384
1.842431615,1.6859487691904764,-1.0067855744514287,-0.3913519424619048,2.526092720095238
1.859238215,1.535435211,-1.080080032384762,-0.27216795153809525,2.4685935416190476
1.876049494,1.3447406404761906,-1.098411946104762,-0.20415180421904763,2.455997294904762
1.892855158,1.1259028116190477,-1.0914008504190476,-0.1821309703857143,2.469197906857143
1.909664902,0.8665982654285715,-1.0881743204380954,-0.18969719250952383,2.5068859295238095
1.926460078,0.5694890930000001,-1.0931978226047618,-0.23834562369523812,2.5645122600952384
1.943280595,0.2583326384761905,-1.1201122829428571,-0.32845190095714283,2.6423056890476193
1.960088915,-0.05362333576190482,-1.1418983823238096,-0.43996984119523813,2.7412085272380957
1.976899125,-0.3601568086190477,-1.156893230657143,-0.5442867740047619,2.8717161718095237
1.993715593,-0.6543213072857144,-1.160247030704762,-0.6174604587619048,3.010877192952381
2.010513599,-0.9423059963333335,-1.149467104942857,-0.6354383833333332,3.1240830533809523
2.027308897,-1.2277894474285715,-1.1152030854190476,-0.6063029177,3.2035510222380954
2.044129942,-1.4938715980000001,-1.1292616753714286,-0.5340918408857144,3.294614595904762
2.060943552,-1.7405973842857143,-1.2190446172761906,-0.43693594209714287,3.4042947205714285
2.077750203,-1.9753965422857145,-1.4131407056666667,-0.3224632889161905,3.5415338107142857
2.094550434,-2.2132094700476195,-1.6784340540904763,-0.21801159001619053,3.710265757333333
2.111358643,-2.450558844,-1.9522396723904762,-0.1262091519352381,3.879361134714286
2.128173208,-2.6741400445238095,-2.1794459479904766,-0.044625111349523836,4.036270492095238
2.144978394,-2.861987091142857,-2.366170361009524,0.02851562903142856,4.1970933250952385
2.161789898,-2.983809175847619,-2.5306299755142856,0.08995811772666665,4.372750210952381
2.178593884,-3.0238265308857146,-2.7023438953761905,0.13906488593619046,4.553268515571428
2.195405214,-2.988635449066667,-2.8820549647428573,0.1920934183504762,4.722793949285714
2.21220974,-2.887141727142857,-3.078016144933333,0.2534839523790476,4.883560621571429
2.229019402,-2.7268859998571426,-3.27439889457619,0.3473299797266667,5.022477765142857
2.245826857,-2.5496815499047623,-3.3863481794714287,0.46854056619333334,5.078640408047619
2.262635279,-2.339228698095238,-3.3919693629571426,0.5984096100076189,5.057019837952381
2.279445093,-2.07949066152381,-3.3222279322238095,0.7394297944980952,5.009544482142857
2.296252283,-1.791049457666667,-3.1810584977,0.8773648823076191,4.952039734380953
2.313051824,-1.4886272520476194,-2.991087777319048,0.9952665027361904,4.8826875152380955
2.329868973,-1.1767866043333333,-2.787340663747619,1.0718994295790476,4.785762890523809
2.346664862,-0.8629406746666668,-2.6154442969380955,1.1350605345171427,4.662198935904762
2.363483466,-0.5496420178571428,-2.4359201249857145,1.1904636514266667,4.547028997761905
2.380292051,-0.24004827223809524,-2.224630991652381,1.2319220495314285,4.46079712852381
2.39710508,0.05751532599999997,-1.942441372652381,1.2423776408695237,4.404812136714286
2.413913765,0.3412499428095238,-1.6001795587,1.2227669847095237,4.365457852285714
2.430716683,0.5997712271904762,-1.1902640433666667,1.1672195912047618,4.308911554095238
2.447524799,0.8315017791428572,-0.7198004722714286,1.068453857495238,4.232007764619048
2.46433267,1.0305730048095239,-0.2551264081761905,0.9126327441619049,4.144747948904762
2.481139129,1.2186102413333333,0.17097264244285712,0.6990221007333333,4.078032341857143
2.497956279,1.402120544809524,0.5618179866333334,0.45041017373333325,4.040969677380953
2.514762939,1.575633366904762,0.9185846192523809,0.20741260687619048,4.015506249857142
2.531562958,1.7050077120476193,1.282098066252381,-0.004618785933333356,3.9873924710476194
2.548379233,1.7893973078285714,1.6422700427761907,-0.19350650693333332,3.9459674544285717
2.565178935,1.8367310705714286,1.9815651575857143,-0.36820489945714285,3.8705145085238093
2.581993522,1.8554712023333333,2.2658986591095234,-0.5529310752666666,3.7691524690952374
2.598795951,1.8871581440952379,2.4347951071761904,-0.7473966897904762,3.721400075619048
2.615615665,1.9422181674285715,2.468366509409524,-0.9356180706,3.727953821238095
2.63241431,2.0025831858095238,2.411736828957143,-1.1030651039809523,3.7484862494761906
2.649223718,2.0533239273809523,2.3215403784,-1.2266576566571428,3.7480199785238093
2.66603282,2.0967741920952383,2.1956590243761904,-1.3049042955571428,3.7288285405238093
2.682838993,2.137075060904762,2.028499898442857,-1.3526721802333332,3.7169599541904765
2.6996471,2.160568736857143,1.8582633790619048,-1.4269941073142856,3.7477351929523812
2.716458613,2.1798172224285715,1.6632551238714286,-1.5380693588809524,3.8091933576666666
2.733262232,2.2052283287619048,1.4179639135380955,-1.6542378763333336,3.8634569187619046
2.75007162,2.225878692857143,1.1531804175857143,-1.7718194751523808,3.8731864454761906
2.766880021,2.2226614725238094,0.9170569238238095,-1.8975738173523813,3.8495089759523813
2.783688158,2.2042276064761905,0.7305797849428571,-1.9913289660761904,3.794896502857143
2.80049779,2.184650739047619,0.5759593873047619,-2.017923309695238,3.697964651857143
2.817306516,2.190695353904762,0.42363464268095236,-1.975499468204762,3.5937340951904764
2.834112607,2.1986667314761905,0.24941591994285717,-1.8705622340952377,3.4733651796190474
2.850926065,2.1966985974761903,0.044445673671428584,-1.7364422892047617,3.3400554608571427
2.867730437,2.180717354714286,-0.17797224856666666,-1.5863328100666667,3.2240697621904766
2.884538187,2.146257831904762,-0.3842560449952381,-1.4167893820095239,3.10057087147619
2.901358806,2.078779788190476,-0.5384356861666666,-1.2374981677238095,2.9713463108571427
2.918155365,1.9805106435142856,-0.6446806135447618,-1.0584761904857143,2.880079160857143
2.934960917,1.8476742789428573,-0.703217006835238,-0.8934572630095239,2.8280330003333334
2.951769695,1.6677819206571431,-0.7335932368019048,-0.7558683476285714,2.8002931367142856
2.968582134,1.4294438362285713,-0.7348929132447618,-0.6574163358857144,2.785005854190476
2.985386497,1.1404258523714286,-0.7290356045352381,-0.6043451826,2.774627301
3.002195508,0.8400750046571429,-0.7743591353590477,-0.5950891148714286,2.7903234034285713
3.019000593,0.5410699730857144,-0.8452502659066667,-0.6012857414666667,2.832925988619048
3.035814395,0.2247710795619048,-0.8861950465447619,-0.5856089904428572,2.904006721190476
3.052616856,-0.10585138910476194,-0.8833367484019047,-0.5242661280285714,2.9826824603333333
3.069429336,-0.45492770558095247,-0.8527912185447619,-0.42396237880190474,3.0417616633333333
3.086235752,-0.8047468208190477,-0.8184183211638095,-0.30533934704476196,3.0846169230476184
3.103042953,-1.1402795314857144,-0.8277652604495238,-0.1618822380209524,3.142634393
3.119852484,-1.456548838390476,-0.9306280499733333,0.04411372474095237,3.2384471581904766
3.13665948,-1.7274159022476192,-1.181032453282857,0.2645038061695238,3.400941288285714
3.15346842,-1.9430794488666667,-1.5570910090733334,0.4244404840266666,3.6372357816190477
3.170276892,-2.122740314104762,-1.9715511458304764,0.5426146537742857,3.920258475238095
3.187085913,-2.295166288057143,-2.3250170208066665,0.6518461045219047,4.196374211380952
3.203891944,-2.4807712917714286,-2.55952489944,0.7807023746314286,4.415660534142857
3.220703438,-2.6488277116761907,-2.6946200189638096,0.9095056895409522,4.578010420857143
3.237509194,-2.7631981940095236,-2.8351538068209523,0.9885764023885715,4.734935498761905
3.254316496,-2.7841858636380956,-3.0675013633638097,0.9988844863885714,4.931178594047618
3.271124643,-2.7214547792714283,-3.3603394599857146,0.9675607015076189,5.151722482095238
3.287922179,-2.6052302859857144,-3.5954341662190474,0.9565675216980952,5.304854077904762
3.304769734,-2.4589569909380953,-3.6981624649380955,0.9865504688885713,5.337922424
3.321554363,-2.2785699708428573,-3.7004996254999996,1.0666125233361905,5.330812548
3.338357728,-2.075866097509524,-3.6228161086142854,1.1927633066695238,5.324449226666667
3.355167745,-1.8683003811761902,-3.4656793277571425,1.3227753136647618,5.310933876761904
3.371973767,-1.6424204849380954,-3.2666504043285713,1.4294754303504762,5.284137487619048
3.388783002,-1.3824218455095239,-3.051855813947619,1.4778981046885715,5.225139755952381
3.405591269,-1.1108949411761906,-2.8226399649,1.4613019591123808,5.150816622904761
3.422389224,-0.8149975935571429,-2.578946159042857,1.3998995843142856,5.089252921190476
3.439213422,-0.5122389679857142,-2.2979341689,1.3134634921761905,5.057847714333334
3.456014123,-0.20404536379523813,-1.971354598138095,1.2117778802,5.048681179428572
3.472826592,0.10275937268095234,-1.5865636099000002,1.0522323507238094,5.03101304695238
3.489633041,0.3790060906809523,-1.1030109723761907,0.8699939762952381,4.972275463238096
3.506441248,0.6156540258238095,-0.5446317082809523,0.7165709564380952,4.862353233095239
3.52324679,0.807406323347619,0.05203319724285712,0.5765261253428571,4.709570443952381
3.540057999,1.0094885713,0.5855582100047619,0.42649757300952373,4.550846825761905
3.556865006,1.2648641949666666,1.0050052687190476,0.25961438251428565,4.448173783761905
3.573672074,1.5299195221571427,1.3419849304333333,0.09133450194285707,4.394192234714286
3.590480058,1.765848909157143,1.6434870900999998,-0.04061419052380959,4.346116992952381
3.607289812,1.9572694075000001,1.955510071290476,-0.1189849830333334,4.272582272238095
3.624096636,2.1047867026190477,2.2741634277571428,-0.1825383106380953,4.164940484523809
3.64090934,2.233708779095238,2.5180299622333333,-0.2765292723571429,4.117689350095238
3.657713214,2.3654020855238094,2.6475436800523813,-0.4071518012142858,4.178303660285715
3.674520557,2.507266112809524,2.6856194677333334,-0.5887006180238096,4.278242301333333
3.691330738,2.668366931809524,2.6446262313952382,-0.8006667749761905,4.373438325619047
3.708143299,2.832382860714286,2.557007244638095,-1.0011805011666668,4.45808758947619
3.724933674,2.965598855761905,2.46070096602381,-1.1751077799285714,4.521508469285714
3.741755636,3.0748735837142855,2.3299427032038094,-1.2959739650761906,4.570233657285714
3.758561769,3.193323407904762,2.1334756214895236,-1.3641872405809525,4.610467050285714
3.775358277,3.3046831176666664,1.8660533314419048,-1.4085489227238095,4.652152570666667
3.792178784,3.4019959540952387,1.550016902727619,-1.4456216493904763,4.675935210190476
3.808997123,3.4832299209999995,1.243001165822857,-1.470405970247619,4.6487486991904765
3.825796205,3.5529595102380953,0.9948555173895238,-1.4487659135809525,4.563766534952381
3.842605605,3.6156123024761904,0.7794021651609524,-1.3924573063333332,4.4644746722380955
3.859413059,3.6554570084285714,0.5837266785657143,-1.296902188161905,4.3637824157619045
3.876198541,3.6759642759999998,0.41878641218952384,-1.1694557126857144,4.271657927523809
3.893027541,3.6597095103333337,0.286267416827619,-1.018036771352381,4.200835841
3.909823338,3.591233616761905,0.15097856524714284,-0.8576434367619049,4.128623943857143
3.926641891,3.475311313333333,0.0029973075614285723,-0.7046777037619048,4.050152995714286
3.943457301,3.3131811504809523,-0.12538292293380954,-0.5698833947238094,3.979402575428571
3.960261532,3.0953649225285718,-0.2174645832290476,-0.4497154297380953,3.916582100333333
3.977067776,2.833885839957143,-0.2895640418338095,-0.31333544982380956,3.871028442
3.993872392,2.5439607188142856,-0.3669793718814286,-0.16285549734285718,3.839777239952381
4.010690478,2.242482139909524,-0.4837828590338096,0.008245726514285678,3.8280653853333333
4.027492632,1.9145914486238094,-0.621027129005238,0.21477710927619045,3.8216942424761906
4.04430201,1.543765590242857,-0.7436097689528571,0.43132687475238096,3.8113427163333333
4.061110849,1.1505725042904762,-0.870239008005238,0.6509206948476189,3.8179692047142857
4.077924264,0.7485944202904761,-1.0231811432480953,0.8805871152285715,3.8786496678571427
4.094727467,0.3500638235285714,-1.197606427332857,1.1056567857047621,3.994867217190477
4.111533579,-0.048517999185714346,-1.3681780497614286,1.328320426704762,4.1377965871904765
