Time (s),Linear Acceleration x (m/s^2),Linear Acceleration y (m/s^2),Linear Acceleration z (m/s^2),Absolute acceleration (m/s^2)
0.123771716,-0.04210881037190476,1.8046000028761904,4.186616103190476,5.5660155799523805
0.128694178,-0.03818595320523809,1.643599333895238,3.8275072010000004,5.327008571666666
0.1336163,-0.03612709599604762,1.4845326170857143,3.4727916322857144,5.083201953619047
0.138538531,-0.033953000701142856,1.3247830410857144,3.121810731666667,4.836466644619047
0.14346099,-0.028081619622571427,1.165146750804762,2.7739089218571427,4.587114593714285
0.148383326,-0.014601286277333333,1.004894270547619,2.429501925380952,4.335994719285714
0.153305787,0.0035346665298095228,0.8443181257142857,2.085373452904762,4.085770024666666
0.158227943,0.020940523460761903,0.6840614561,1.7413401718571426,3.8351260504285714
0.163150155,0.03300219033457143,0.5247149295428571,1.394958411047619,3.5849419807142855
0.168072538,0.03898499981266666,0.36701764080000004,1.0432446514761904,3.337932128285714
0.172994751,0.03837590455980953,0.2082813040238095,0.6839022239523809,3.098146869952381
0.177917134,0.038681142784095235,0.04798982530000001,0.3230715139047618,2.860357142238095
0.182839347,0.04468766675076191,-0.11348808388095238,-0.03651538914285723,2.622063298523809
0.187761729,0.05597061951980953,-0.2759538492238095,-0.3972364323333334,2.385644158333333
0.192684191,0.06903304837933333,-0.4360079481952381,-0.7590382893809524,2.149293584047619
0.197606328,0.08027419132933333,-0.5939150452857143,-1.1206103336190476,1.9115891591904763
0.202528559,0.09144500079838094,-0.7487117619761905,-1.4789231391428572,1.6696481396666667
0.207451018,0.10167090530390477,-0.7352479043476191,-1.432849798904762,1.6225969131904763
0.212373485,0.11493023828342858,-0.7196394276095238,-1.3889256602380953,1.5769000233333335
0.217295641,0.1303002384372381,-0.7009929049619048,-1.3378703282095237,1.5242268503333332
0.2222181,0.14573352450980953,-0.6787082850952381,-1.2771050901761904,1.4638083623380953
0.22714047,0.16203823867028572,-0.6521805233904762,-1.2094100884095238,1.4022472458857143
0.232062626,0.18042109644409524,-0.6215246671000001,-1.1401743267061906,1.3455068266380952
0.236984784,0.2000644770182381,-0.587629524944238,-1.0677269940966667,1.2939620297
0.241907244,0.22346142927333335,-0.5485037141699524,-0.9815112340538096,1.2593301424142858
0.246829463,0.24766071424,-0.5041626651461428,-0.8791971365109523,1.2460656984142857
0.251751845,0.2636801905495238,-0.457230092736619,-0.7627526623204762,1.250107315652381
0.256674307,0.2735293344304762,-0.4081550469794762,-0.6346206653204762,1.2640361619380953
0.261596462,0.28446157275904765,-0.3605250945461429,-0.4933421940347619,1.2908080711285717
0.266518921,0.29888747844952385,-0.31311614336519045,-0.33895009351095234,1.3270458032238095
0.271441077,0.3164657641690476,-0.2653285238747143,-0.16750785732047618,1.3711136120333334
0.276363624,0.33570200275285716,-0.21809419017947618,0.023609100155714297,1.4188001791285716
0.28128601,0.35121047922142856,-0.1717063339747143,0.23069610034619045,1.4782781679380952
0.286208164,0.365025907752381,-0.1285688567080476,0.45858234001285714,1.560300396604762
0.291130615,0.37604952709523803,-0.08670638026661906,0.707522194774762,1.6604389350333335
0.29605254,0.37951843156190473,-0.04794809421280953,0.9665738185366667,1.7689520966047618
0.300974926,0.3728000982819048,-0.013441381306142855,1.2310720579652379,1.8839528620333332
0.305897388,0.35288552726285716,0.014078617853857143,1.4953260092509524,2.0065235601285716
0.310819621,0.3206332418104762,0.035726903851000004,1.7559355735842859,2.1346422624619046
0.315742028,0.28016067189142857,0.0516489989462381,2.0075848624890478,2.2689518261761905
0.320664261,0.23208276784857143,0.06381252306052382,2.2394114318414284,2.4132773609380953
0.325586644,0.17953019694857145,0.07161261890814286,2.445705236141429,2.567159983790476
0.330508872,0.12702157880095238,0.07724414237957143,2.6281823328509524,2.721588282719048
0.335431331,0.07546262584857143,0.08161728513957144,2.7897071001,2.866411279347619
0.340353718,0.028375434729523804,0.08592738024571428,2.9279155305380953,2.994725226619048
0.345275949,-0.020427373908571432,0.09111471358571428,3.030111477495238,3.0907565450476193
0.350198408,-0.07066575473714287,0.09611199964761905,3.092968957761905,3.148282567761905
0.355120559,-0.11419318332761903,0.10656947562857143,3.1207284359523806,3.17356765152381
0.360042713,-0.15219704239428572,0.1220726196095238,3.1184322493333334,3.1724150024285716
0.364965187,-0.1861576139942857,0.14703090373809524,3.0860132035714285,3.1471931412857144
0.369887572,-0.21552351968952385,0.17723190314761905,3.0266936761952383,3.1033515044761906
0.374809814,-0.23837675775380954,0.21077190082857142,2.9384391066714284,3.043175135047619
0.379732196,-0.2508631868395238,0.25140089886190475,2.8217743408095237,2.9732078793333336
0.384654658,-0.2573585206919048,0.30063523023809524,2.6756833862666665,2.8962843857619047
0.389576896,-0.2648992824061905,0.3595499902952381,2.4942417655857145,2.8059220073809525
0.39449905,-0.26857304448714286,0.42652056005380956,2.2801775279523806,2.706756173095238
0.399421504,-0.2586950916966667,0.4990918465428571,2.0454280490190477,2.610616334904762
0.404343889,-0.2278624263880952,0.5768200354409524,1.7943841900666666,2.520021199047619
0.409266122,-0.17298166613571428,0.6593345105904762,1.532326664257143,2.435162266095238
0.414188499,-0.09631809538809524,0.7456312751219047,1.2598442861142856,2.3614268936666667
0.419110732,-0.00285676353095238,0.8336282276933333,0.9802434274476189,2.2982704894761903
0.424032882,0.09926199537380953,0.92206651436,0.6955661490190475,2.247009048238095
0.428955264,0.1961610421452381,1.0068572770457143,0.40442534292380944,2.2068272810000003
0.433877745,0.277763848302381,1.0816452322219048,0.10439982306666662,2.1810219358571428
0.438799978,0.3443114663261905,1.1437335635333334,-0.2013474702190477,2.1751401326190476
0.44372236,0.3984822281166667,1.191351799747619,-0.5079456113142858,2.1958374622380954
0.448644607,0.44875122728809524,1.2228605605380953,-0.8126894576,2.2476634471904764
0.45356699,0.4980490383071428,1.239477132052381,-1.1109328439809525,2.3309442955714283
0.458489209,0.5430227054833333,1.2403907506285716,-1.4012242782190476,2.4393967424285714
0.463411668,0.5845336110214285,1.2256376076333333,-1.6781312283619048,2.567428970952381
0.468334055,0.620877849002381,1.1916196087285713,-1.938845651457143,2.7072301547142854
0.473256518,0.6533974676738096,1.1417792769380952,-2.181851179795238,2.854111196952381
0.478178751,0.681859324,1.0769845165619047,-2.4025639848904765,3.001786891095238
0.483100905,0.7058240849142857,1.000103804695238,-2.5993502139809523,3.14174468047619
0.488023274,0.7298652266952381,0.9114170915285713,-2.7683025044857144,3.263536261238095
0.492945429,0.7522399396904762,0.8134554273142857,-2.9057458355190473,3.360058281904762
0.497867668,0.766719985552381,0.7080972864952381,-3.0116459840761904,3.4274084037619046
0.50279013,0.7659008900095239,0.5971188108571428,-3.0934847479523806,3.470239276857143
0.507712514,0.7429637958380952,0.47973928740476196,-3.1615955148095236,3.4987148156666668
0.512634756,0.6957572258447619,0.3572848598619047,-3.2207119407619045,3.5181224365238095
0.517557139,0.6250424171971429,0.22635537843333328,-3.266343797904762,3.5258229051904757
0.522479372,0.5386602750733334,0.08835680886190475,-3.2922775063809526,3.5190170420476186
0.527401836,0.4425169442495238,-0.055862572614285726,-3.287278561333333,3.4917369216666665
0.532324223,0.34561318303523814,-0.20300719109047619,-3.2312274149047617,3.4409844990000003
0.537246454,0.2613105674590476,-0.3496131936142857,-3.1006952775690477,3.3744287108095237
0.542168826,0.18818523628285716,-0.4968128129952381,-2.884938038140476,3.3338383851904765
0.547091059,0.11514718901619048,-0.6452442389952381,-2.5836091406642856,3.341472687666667
0.552013228,0.035003853706666685,-0.7942707180428572,-2.198989677616667,3.399585166952381
0.55693561,-0.0568518141838095,-0.9441671438857142,-1.736206829188095,3.509390780809524
0.561857843,-0.1639979552695238,-1.0989631467857144,-1.1988431637595238,3.6772708167619044
0.566780298,-0.28023476684571424,-1.2576432877428572,-0.5820818426166665,3.9158627809523807
0.571702683,-0.39428090904571433,-1.418615432738095,0.11252144166904768,4.230167039428571
0.576624944,-0.49893286252666663,-1.577441618552381,0.8671673342880953,4.6053060252857145
0.581547327,-0.5910130525933333,-1.7310323842714286,1.6595300922404763,5.025526857857143
0.58646956,-0.6732054309790476,-1.8804174377380953,2.46387461005,5.470747603857143
0.591392014,-0.7587108086361903,-2.0219894391904765,3.2562132653833333,5.927564933047619
0.596314401,-0.8490629493552381,-2.1586405350714286,4.024795109954762,6.395795625666667
0.601236632,-0.9406491361409524,-2.304548720490476,4.766314106907143,6.877409369238095
0.60615899,-1.0417986582742857,-2.4491023392809526,5.505641492002381,7.383492167380952
0.611081223,-1.1479236632123808,-2.5805065802095237,6.26823301305,7.918220092285715
0.616003386,-1.2402524294809525,-2.6995756285238093,7.0458947337642845,8.466293285666668
0.620925845,-1.3098423792619047,-2.8108644314761904,7.822326884764284,9.014153187666667
0.625848016,-1.3602038564714285,-2.917840384238095,8.597224936907143,9.574930785047618
0.630770476,-1.3861278578857141,-3.0235566694761906,9.368828032859524,10.164802456714286
0.635692855,-1.3785221916809525,-3.1242688666666667,10.10742428505,10.77687114247619
0.640615088,-1.3495579545904763,-3.2115370091428574,10.77263706642857,11.38146691847619
0.645537471,-1.3089431461671428,-3.2762383846666667,11.338065828714285,11.917948233809524
0.650459704,-1.2616277644347618,-3.3087081000476193,11.788610708428573,12.346199530238096
0.655382163,-1.2135945716919048,-3.2993573801428573,12.118298326666666,12.652006125619048
0.66030455,-1.1668833808633334,-3.2449260950000003,12.321041720714286,12.827613689238095
0.665226781,-1.120187098282381,-3.1463067588047617,12.398338499999998,12.87415867247619
0.670149163,-1.0779102390157143,-3.00633266602,12.341029553619048,12.786451045761904
0.675071396,-1.0468802369204762,-2.828328091805714,12.150673162714284,12.569784529190475
0.67999376,-1.0311400466823808,-2.620866334505714,11.852531365285714,12.252853943142858
0.684915915,-1.0282266170633332,-2.3867021419819046,11.466832115999999,11.858293355238095
0.689838408,-1.0353002351585714,-2.125575425077143,11.01343659042857,11.411862292904763
0.694760641,-1.0402706664919048,-1.8404888954580954,10.503954796857144,10.938649722476189
0.6996831,-1.0338330469680952,-1.5326763750295236,9.939371188719047,10.458457812380953
0.704605492,-1.010328906120476,-1.1941427124104762,9.316213626542858,9.992865005285713
0.709527646,-0.9526295748919049,-0.8443244259342858,8.610127195495238,9.547780759619048
0.71445008,-0.860417521972857,-0.4953718486961905,7.805358916876191,9.126953851952381
0.719372313,-0.7608019938609523,-0.14908156688666668,6.920150946114286,8.743938344952381
0.724294696,-0.6686613299228571,0.2008977202085714,5.974030933638096,8.411534038761905
0.729216924,-0.5945083293290476,0.5582370910180953,4.962208346733333,8.121997182095237
0.734139306,-0.5454839475290476,0.9229457189704763,3.8795263731142855,7.864410779428572
0.73906152,-0.5314155668195238,1.2831517666847618,2.7434961757809524,7.645714555619048
0.743983903,-0.5491839484242856,1.6336830495895238,1.579176592447619,7.485043872761905
0.748906111,-0.5857992340904762,1.9728518593038096,0.40963841244761895,7.394610575619048
0.753828494,-0.6253115191657143,2.2924264764942857,-0.7412387227904763,7.380336184190476
0.758750717,-0.65821485338,2.579726813446667,-1.8576600137428572,7.4434657237142865
0.763673099,-0.6809036636942857,2.823126904684762,-2.924629476457143,7.582991717523809
0.768595332,-0.6857132816895237,3.024766386632381,-3.937003037647619,7.787304120000001
0.773517782,-0.6757491391609524,3.1856887681333332,-4.8876535026,8.04622784652381
0.778439938,-0.6503862360133333,3.3078800014428573,-5.7716432455047615,8.34414812547619
0.783362397,-0.6090730916085714,3.393359576,-6.59352367712381,8.66381856104762
0.788284787,-0.5541162829228571,3.442929194142857,-7.357529724028573,9.004606178
0.79320702,-0.49127509487047616,3.453969671666666,-8.061076338933333,9.364141149380952
0.798129402,-0.4217652849609524,3.4231037185714293,-8.68961633250476,9.728101990285714
0.80305165,-0.35142804903714286,3.3535859585238095,-9.23433174817619,10.07941360942857
0.807973804,-0.2879642873466666,3.2426960525476196,-9.687089477142857,10.393564708904762
0.812896267,-0.23528138237999996,3.099440146085714,-10.042970078190475,10.650516344952381
0.817818423,-0.19473652657047616,2.9284460970523813,-10.306518304761905,10.83787844852381
0.822740879,-0.16222595609666665,2.7334606732904763,-10.488261268095238,10.956734584761906
0.827663263,-0.1401247645585714,2.5166952865619048,-10.595802011809523,11.009937872666667
0.832585725,-0.12544605091428568,2.2788158655333333,-10.638907250761905,11.005762391857143
0.83750789,-0.1142866220290476,2.019799953438095,-10.62350359404762,10.95040834752381
0.842430121,-0.10445186025285713,1.7463239602000002,-10.550339176428572,10.848058262809523
0.84735258,-0.09421947837666664,1.456604435342857,-10.422841003952382,10.700488471095237
0.852274984,-0.08152647910523807,1.1514133385333334,-10.257654576190477,10.520796864761904
0.857197217,-0.061468193481428554,0.8351625828666668,-10.072982992619048,10.324483103428571
0.862119599,-0.038117477848095216,0.5145919550095238,-9.878653004238096,10.121329837904762
0.867041832,-0.015042095929047605,0.19854690915238102,-9.679481529333334,9.917929074333333
0.871964215,-0.0018867150433333202,-0.10873290470476185,-9.483981291476189,9.722108805571427
0.87688637,0.0016949053519047783,-0.40587495622857145,-9.301018737571429,9.542532246666667
0.88180883,-0.0040897623195237905,-0.6879559471809523,-9.139892328238096,9.387472513380951
0.886731054,-0.020299286624285692,-0.9527729466095236,-9.00095901004762,9.257052510714285
0.891653513,-0.049689999909999984,-1.200340418609524,-8.881345544380952,9.147428005285715
0.896575669,-0.08829485801952379,-1.4308047976095237,-8.778157075095239,9.055653292904761
0.901498037,-0.13866933470523807,-1.6425280911809526,-8.695190497761905,8.985788232285714
0.90642027,-0.20312880901476188,-1.8347106093714285,-8.63070394895238,8.935595385809524
0.911342652,-0.2767031902290476,-2.0014288936809526,-8.584859689238094,8.905437096952381
0.916265125,-0.3551475235290476,-2.1422779929333333,-8.557494413428572,8.893521451047619
0.921187358,-0.4416380467814286,-2.258924277090476,-8.550150848714285,8.90102179757143
0.92610974,-0.537500378605238,-2.352252185376191,-8.56100311747619,8.926647140238094
0.931031963,-0.6348873802242857,-2.4236457035999996,-8.582920869333334,8.963417132666667
0.935954117,-0.7244769022242857,-2.4720317522857145,-8.600939591857141,8.995446049809525
0.940876499,-0.8093771866714286,-2.4972955159047623,-8.605973448190477,9.013166231047618
0.945798971,-0.8908800439571427,-2.4959599915238093,-8.596514724666665,9.013583717761904
0.950721204,-0.9679360445999999,-2.470511464857143,-8.56353301104762,8.987156601714286
0.955643586,-1.0357363762619047,-2.428202226047619,-8.488844076904762,8.916026960952381
0.960565848,-1.0984345645285714,-2.375559466238095,-8.364455586476192,8.793558103857142
0.965488231,-1.1567517064047617,-2.3126119375238097,-8.194987410666666,8.624773164
0.970410464,-1.2097699925047618,-2.2368040822857145,-7.989270755285714,8.417670859619047
0.975332927,-1.2508650903571428,-2.1472551311904757,-7.747853301904762,8.171716438714286
0.980255314,-1.2813938514523808,-2.046775888838095,-7.464920339238096,7.8838480258571435
0.985177545,-1.309928899642857,-1.9416780358238095,-7.13823600052381,7.557424656380952
0.990099913,-1.3443459952666668,-1.8334550403571428,-6.772205977285715,7.204464494761905
0.995022146,-1.3828636633809523,-1.7233735181095238,-6.360152957038095,6.8293496490952394
0.99994429,-1.4138333768,-1.6138643764190475,-5.874233194790476,6.453345901714287
1.004866749,-1.432443184404762,-1.5100155132000002,-5.280739017885715,6.158171099238095
1.009788915,-1.4367470427809523,-1.4141005163952383,-4.573605951790476,5.979737491238096
1.014711375,-1.4353878525238095,-1.3244009954238094,-3.7616408268380956,5.9177479095238095
1.019633836,-1.4388240404190475,-1.2417015149333335,-2.8517985172190476,5.965946587428571
1.024556228,-1.4397973275142857,-1.1579563276857143,-1.8290877172190476,6.1271225154761915
1.029478151,-1.4225113759904762,-1.0699001337571428,-0.6818483500761905,6.410026971190477
1.034400611,-1.3678531376238094,-0.9888958533333333,0.5964025260666665,6.830665433238096
1.039323076,-1.2697019476809523,-0.926908660495238,1.9978039549238094,7.397746131666667
1.044245463,-1.1444472825857144,-0.8825767096714285,3.4820015262571427,8.083799451714286
1.049167694,-1.0174854241095237,-0.8526717594333333,4.995525695304762,8.84488102495238
1.054090043,-0.919180518747619,-0.8369031860523809,6.4803949482571435,9.642432590333334
1.059012199,-0.8921138054619048,-0.8451269524333334,7.890281103971428,10.451074872190476
1.063934625,-0.9334722423190476,-0.9007555302904762,9.233263509495238,11.285752228714287
1.068856857,-1.0035541972238096,-1.0179078635761905,10.541472769590476,12.166348186
1.07377925,-1.0651590036047618,-1.175153102195238,11.843014075495237,13.101019193952382
1.078701406,-1.1018334293190477,-1.339766962195238,13.163443990923811,14.104829556
1.083623865,-1.1222069099857144,-1.495873096452381,14.495837682447618,15.176857345380952
1.088546117,-1.1402695753190477,-1.6415287653714286,15.820234655828571,16.29887667004762
1.0934685,-1.1559418617,-1.7780471416,17.10945704392381,17.43833953195238
1.098390733,-1.159579192604762,-1.897644902990476,18.338713898009523,18.571836404476194
1.103313182,-1.1545482427,-1.9844578107285717,19.46230128790476,19.662855686142855
1.108235569,-1.1429104329666668,-2.0214285254714284,20.432120095571427,20.62258123304762
1.1131578,-1.1326649565380953,-2.012014098138095,21.234451656857143,21.419860880857144
1.118080187,-1.1177784325380953,-1.9724496681333332,21.867794899523812,22.04982932714286
1.12300242,-1.0899072921333333,-1.9235091926380952,22.32417587952381,22.50312460142857
1.127924792,-1.0631359084904761,-1.8858127629761905,22.577168872857143,22.753897262857144
1.132847024,-1.0531752883142858,-1.8589560013714286,22.602669579047618,22.778780053809523
1.137769174,-1.0787924776619047,-1.814826001042857,22.384262674285715,22.561844653809526
1.142691634,-1.1469878604190475,-1.7329508102142857,21.92414606095238,22.105177717619046
1.147614037,-1.2319801925333334,-1.6074196675619046,21.250395274238095,21.439252500857144
1.15253627,-1.3067519544285715,-1.448838143895238,20.403345629190476,20.61040749152381
1.157458653,-1.3389627167285714,-1.2618279124190477,19.42566000752381,19.673011505904764
1.162380886,-1.291817192552381,-1.042362957561905,18.356072572571428,18.69579114738095
1.167303268,-1.1725814726161903,-0.7686966211333333,17.193968874380953,17.748497092809526
1.17222573,-1.0268528527149048,-0.4324947148952381,15.92950865152381,16.857393659476188
1.177147963,-0.8947837128758571,-0.0615766680380952,14.558355296666665,16.011992804714286
1.182070345,-0.7920529513820476,0.30542543315238097,13.068042584190474,15.192266807238095
1.186992501,-0.7056353774672857,0.6551208545333334,11.465854564809524,14.398812035190478
1.191914966,-0.6171538540101428,0.9838144714857142,9.783228976095238,13.634522569000001
1.196837121,-0.5185152328768095,1.2898893746285716,8.059065647999999,12.913471281380954
1.201759566,-0.4227722351958571,1.561341563104762,6.3189050237142865,12.247759627571426
1.206681799,-0.33968804217204757,1.7807888012000002,4.584052368952381,11.648806731380953
1.211604181,-0.27413637660538087,1.9391299478666668,2.871534903238095,11.12184950757143
1.216526414,-0.22319842457204758,2.037289282347619,1.1911399127619045,10.659952308047618
1.221448568,-0.19030090057014282,2.088171474942857,-0.44041260200000004,10.262463939952381
