Time (s),Linear Acceleration x (m/s^2),Linear Acceleration y (m/s^2),Linear Acceleration z (m/s^2),Absolute acceleration (m/s^2)
0.121799464,-4.202248151889524,-2.1772819314251524,1.6712803224214285,5.054821154171429
0.126721846,-3.943277782371905,-2.039862786886581,1.5825647492642858,4.755440960433334
0.131643953,-3.6835799841100005,-1.9032752614083903,1.4921077469357142,4.454189491395238
0.136566182,-3.421756281174572,-1.7658003073645812,1.4012411734214285,4.1522732885
0.141488567,-3.1594468639359055,-1.624465734287438,1.3108250286595238,3.8516420550761903
0.146410789,-2.897258827650862,-1.4788074945588665,1.2211445499690476,3.5537705268809523
0.151332943,-2.633102172309909,-1.3281269695922,1.1339268330214285,3.2611183931571426
0.156255326,-2.3677239454961,-1.1734334441255332,1.0509818310404762,2.974426697947619
0.161177449,-2.104632480681814,-1.0111842054017237,0.9718593529785715,2.6956497383428575
0.166099603,-1.8448076349422906,-0.8433140130969619,0.8951177313642857,2.4227637657
0.171021756,-1.5865178365803856,-0.6687943919017239,0.8197997780452381,2.156148654709524
0.175943989,-1.3309679431089572,-0.4895675336207714,0.7440784431976191,1.8935281003285713
0.180866145,-1.078888288113719,-0.3051848168017238,0.6670622031166668,1.6352671445190476
0.185788528,-0.8285292042137191,-0.11690643689696192,0.5882097724166667,1.3800067103285716
0.19071064,-0.5809637389232429,0.0742324210078,0.5067630552261905,1.1270029934238095
0.195632869,-0.33590227469467143,0.26674080629351427,0.42310181545000003,0.8752037705190476
0.200554982,-0.09494561914705238,0.46140299691256187,0.3362575755261905,0.6257963760904762
0.205477136,-0.11978828649467141,0.5133408991935143,0.3458363371285714,0.6832713975666665
0.210399596,-0.14645190669800479,0.5702138521092286,0.3470360509047619,0.7427554958428572
0.215321731,-0.1760860499656238,0.6293700888120858,0.3396299554204762,0.800608433252381
0.220243885,-0.20479285885276668,0.6888550411468477,0.3269562882547143,0.855587004547619
0.225166278,-0.23399500255752853,0.7476262335281905,0.3102675262894762,0.9095111504904763
0.230088434,-0.2653019544418143,0.8048680420848572,0.289887621099,0.9638771045619049
0.235010583,-0.2974938587941952,0.8628508536542857,0.26949219244661904,1.0203320388857142
0.239932811,-0.33272923874867144,0.9199643791342857,0.24865981136566664,1.0780584542095237
0.244854982,-0.36856162055400477,0.9716318540571429,0.22374019220376187,1.1338647182047619
0.249777365,-0.4062762400580952,1.018069280042857,0.19863685875138096,1.1871424755428572
0.254699598,-0.4483632402752381,1.058455661647619,0.1700308115180476,1.2359513590285713
0.259621665,-0.494262621517619,1.0919696603714286,0.13622066855614287,1.278363234
0.264543893,-0.5400994789033333,1.1144943266,0.09821247822280954,1.3118719342238097
0.269466355,-0.5843230024666667,1.1269352322857142,0.057216573846619045,1.3377079295333334
0.274388511,-0.630693243352381,1.126663897752381,0.014513287322809524,1.3563204158571427
0.279310665,-0.6745207685380953,1.1162009949095237,-0.025405189305761907,1.3675095039523808
0.284233047,-0.7141367211047619,1.0921472793857143,-0.06092818952480953,1.369071356952381
0.289155193,-0.7503520065761905,1.0610161395571427,-0.09414828482004761,1.364763301047619
0.294077422,-0.7788212937904762,1.0248805213666667,-0.12609399874861907,1.3532207762380952
0.298999564,-0.7969509590142858,0.9852491858714287,-0.15744637966290473,1.333227382142857
0.303921946,-0.803333055395238,0.9396484253238097,-0.18619895213909524,1.3031275185095237
0.308844179,-0.8007027691238096,0.8897062369809523,-0.2103880000105238,1.2649558517809523
0.31376627,-0.7863797673047618,0.8309091888333333,-0.22609276167242856,1.2137761423190476
0.318688422,-0.7631945290666667,0.765126333195238,-0.23002928551004764,1.1544586366285714
0.323610653,-0.7365867676390476,0.695352714547619,-0.22198533320142858,1.1001029098952382
0.32853279,-0.7098822905819047,0.6222918557142857,-0.2031935235219048,1.0543322336380951
0.333455249,-0.6872446238914286,0.5480032377380952,-0.17451552355047617,1.016006807704762
0.338377405,-0.6678442912342858,0.4727174255,-0.1405884270504762,0.9820386862809524
0.343299788,-0.6493209117866666,0.39678370939523805,-0.10271433226,0.9508782222857142
0.348221943,-0.6310165297390476,0.3264835674238095,-0.059269524221904756,0.9202460889095238
0.353144153,-0.6101631011247619,0.2597742845666667,-0.01368295241714286,0.8904442220380953
0.358066309,-0.5861662441771428,0.19723904615714288,0.03548447485904762,0.8609830683571428
0.362988458,-0.5571857676580952,0.14173876158714288,0.08596718790190476,0.8307160429
0.367910612,-0.5272137678771429,0.09326909638142858,0.13486618850190477,0.7998829778190475
0.372832999,-0.49813014836285713,0.05523704751,0.17910585428285714,0.7678032937190477
0.377755232,-0.46684362208666663,0.029340429452857156,0.21555490206380953,0.7330088201428572
0.382677386,-0.4322207641438095,0.01522571322904763,0.24236999718285715,0.6987664361380952
0.387599554,-0.3972527640390477,0.018804188771904772,0.26287323503047616,0.6750054320428571
0.392521937,-0.3589856688533334,0.03130285419571429,0.28432056858285715,0.6577803592428572
0.397444169,-0.31654852491809526,0.051257806652857146,0.31202180737333335,0.6508970470380953
0.402366566,-0.2780250495909524,0.07786709119095239,0.34605199791142854,0.6574339802
0.407288722,-0.24241104869095237,0.10827685302904763,0.38559971235904766,0.6745517587857143
0.412210876,-0.20672957249571428,0.14008304241952382,0.4208382366352381,0.6967778838952381
0.41713309,-0.17464842971952382,0.17336785221476192,0.4437199992495239,0.7234957477809524
0.422055246,-0.14607209611,0.20933928017190476,0.441767522982381,0.7526475125
0.42697739,-0.11364595278047618,0.24112566095285715,0.4109735233490476,0.7817070000809524
0.431899773,-0.08466519066142857,0.2728968042290476,0.3484787132109524,0.8156424097666666
0.436822016,-0.050639952985238094,0.29734813737190474,0.26760552325380954,0.8502876181285712
0.441744093,-0.0074873822614285645,0.3129058522414286,0.18542233249666668,0.8801355689333334
0.446666321,0.04279223646714286,0.32459713798428574,0.11019495269666667,0.9009157888333332
0.451588477,0.10009590353857144,0.32650604343190476,0.05045647846333335,0.9149539232571429
0.456510937,0.16185399884809526,0.3211467102461905,0.010183383296666685,0.9251394782238096
0.461433093,0.23241637996714287,0.30613166231761907,-0.00968718743190475,0.9468028486190476
0.466355489,0.30685452044809525,0.28430804464476195,-0.009792139860476182,0.983448685647619
0.471277645,0.36521251988619047,0.2648927111790476,0.004492476553809534,1.0143091799666668
0.476199874,0.4300215655052381,0.23091137906952383,0.0411668597157143,1.0658739102095236
0.481121948,0.4983078510385714,0.18510933150761905,0.09788266606333335,1.1334205407857143
0.486044177,0.5668382331909524,0.12109423678380954,0.1624028108014286,1.2107254072666667
0.490966337,0.6243402801290476,0.04340633185047619,0.21799133363476192,1.2714029805523812
0.49588872,0.6588870903766667,-0.041611332220952375,0.2569020944109524,1.311834440495238
0.50081089,0.6636685665100001,-0.13627604496380952,0.27263371434904765,1.335479569747619
0.505733044,0.650778566792381,-0.24131380514952377,0.26661066641095243,1.3527981454428573
0.510655273,0.6284941853447619,-0.3540091358209524,0.24064595260004765,1.373943371395238
0.515577725,0.6039376613590476,-0.4737863242495239,0.2039604290667143,1.4066992595380952
0.520499881,0.5827786606633334,-0.5916115627066667,0.17242080868100002,1.4490917308761904
0.525422035,0.5694786129204762,-0.7031069894542857,0.16228923741766668,1.493130564704762
0.530344422,0.5608296596538096,-0.7991157046352381,0.18344480854004766,1.5272480667142858
0.535266655,0.5713557547728572,-0.8794543700304762,0.24486714236861906,1.5443031064285715
0.540188809,0.5885807548919049,-0.9386291780542857,0.3347872856781429,1.5515691438571426
0.545110972,0.5978071366728571,-0.9747323216333333,0.43409933284480956,1.555414218047619
0.550033126,0.5987970421014286,-0.9967961311285715,0.5281993795686191,1.5617831656190475
0.55495528,0.5896726126490476,-1.0055325598904763,0.603023235921,1.5687504588095238
0.559877662,0.5745231356680953,-1.005062750404762,0.648731806373381,1.5710857258571427
0.564799833,0.548692849782381,-0.9948307020333333,0.6591993299971904,1.5505337716428573
0.569722062,0.5169116134728572,-0.9813331323047618,0.635994188773381,1.509401451495238
0.574644218,0.5037425660919048,-0.9733168936952381,0.5875095236181429,1.474370274657143
0.57956661,0.48691575763952377,-0.9559547993476191,0.5139310459800477,1.4227699342666666
0.584488766,0.46821175764428574,-0.9317469902095238,0.42540076307052377,1.3595174665
0.589411226,0.44399328068714283,-0.8937314188285713,0.33519533209433333,1.2873859970285715
0.594333377,0.42727613910619044,-0.8471325604219049,0.25671514234195236,1.2238649756809523
0.599255607,0.4279108519395239,-0.7932922764295239,0.19511547687528571,1.175428811942857
0.604177761,0.44855385132333336,-0.729581563472381,0.15381014208004765,1.137933427804762
0.609099911,0.4835317088757143,-0.6573399456438095,0.13583999875242858,1.1004829576333335
0.614022294,0.5223742336757142,-0.573486709372381,0.13987580825095242,1.0573490381333333
0.618944527,0.5588247566709524,-0.4783755677533334,0.15762147481333333,1.0065722287238095
0.623866694,0.5868245185857143,-0.3772749015914285,0.1748034755245238,0.9533845005333332
0.628788848,0.6038607571809524,-0.27978804512952377,0.18321195172452384,0.9022755398
0.633711002,0.6093499944333333,-0.19312390206285715,0.17318833281166668,0.8560382882476192
0.638633399,0.6015734218428571,-0.11970361803428571,0.1409259039259524,0.8167603811809523
0.643555632,0.5878069940095239,-0.05965133384380952,0.08622937807833335,0.7818487047190475
0.648477785,0.5787709951428571,-0.014779475653333332,0.016032045602142875,0.7545674838571429
0.653400192,0.5761513284285714,0.018003714757619044,-0.06133252685499998,0.7341784653666666
0.658322348,0.5806024244857143,0.04577923867666667,-0.1345699544978571,0.721575793652381
0.663244577,0.5916594721,0.06912309552428571,-0.19317490591690475,0.7169437296190476
0.668166719,0.6063964735857142,0.09063366676714285,-0.22805395245500001,0.7214669497809524
0.673089101,0.6226440441047619,0.11338395288619046,-0.23854323869119046,0.7340756582809523
0.678011242,0.6375763302809523,0.13998723863857143,-0.22721366741690474,0.7502101898333333
0.682933396,0.651991426952381,0.17043619124333334,-0.2028436193978571,0.7678923490333334
0.687855536,0.6658786648904762,0.2038120490861905,-0.17268533452642856,0.7871126413238094
0.692777765,0.6783008064619048,0.2430747625052381,-0.13666233365023808,0.8111841780809524
0.69769992,0.6842585688619047,0.28821838275095235,-0.09164857099309523,0.8427292185238093
0.702622303,0.6800509506809524,0.3393477137585715,-0.03825357004071427,0.8853004435952381
0.707544459,0.6609959513714285,0.3977069045633333,0.02617333743071431,0.943449100495238
0.712466688,0.6205309512428572,0.47035185992523815,0.09367685927738097,1.0216958557619047
0.717389086,0.5641371405619048,0.5560054289395238,0.15333980944690478,1.1154478460238095
0.722311242,0.49841142801428573,0.6528239569395238,0.20685352086547623,1.2174893718142856
0.727233471,0.43058628660476195,0.7559984390157143,0.26353299566857147,1.3264760773380952
0.732155851,0.3651558100523809,0.8704074912204762,0.31588728107333336,1.441076651547619
0.737078006,0.30695600134285717,0.9979622484871429,0.3584345183780953,1.558272455052381
0.742000156,0.2522017640095238,1.1360092021252381,0.38727132854,1.6767773620714286
0.74692231,0.20129671516190478,1.279732726887143,0.3967379014257143,1.7957315013904762
0.751844529,0.1531109040047619,1.4320701985490476,0.3786448519019048,1.9222640744428574
0.756766685,0.10881504665714288,1.5931121026142858,0.3385797563828572,2.0582819449333334
0.761688839,0.06914037928095237,1.7587330547428575,0.2881195199828572,2.202203055552381
0.766611235,0.029722713742857145,1.935635672452381,0.23542837678761905,2.353937872109524
0.771533391,-0.006114954295238092,2.118798661080952,0.17863885443047622,2.511615333352381
0.77645562,-0.032040190385714276,2.3056759905238096,0.1154618093619048,2.6727132549047616
0.78137801,-0.039556285004761896,2.4893859440238097,0.03514000281428574,2.837693194238095
0.786300242,-0.034230573104761894,2.669904754252381,-0.04010080932857139,3.000843116095238
0.791222396,-0.02654047552380951,2.849056749085714,-0.07750414166190474,3.1572632802380953
0.796144779,-0.0239453801142857,3.022070036033333,-0.0630445714142857,3.312952038476191
0.801066704,-0.022607712809523794,3.189985882666667,-0.023371524033333296,3.4753435223809523
0.805989071,-0.014352045180952365,3.358049636809524,0.011727760957142896,3.640459763095238
0.810911304,0.016181097204761918,3.524539118761904,0.01140723557619051,3.795888745142857
0.815833449,0.07188366714285717,3.677452825380952,-0.03299147669047616,3.9299545987142857
0.820755603,0.1236940481,3.7977181049047615,-0.10573723625238093,4.028616526285715
0.825677986,0.14599942882857142,3.8781362034285713,-0.16896475707619044,4.089846736476191
0.830600136,0.13710985869047623,3.916065011714286,-0.18866099274761902,4.1206658543809525
0.835522365,0.10268228682380955,3.904346670428571,-0.12533190063809518,4.154605559904762
0.840444521,0.0466467142666667,3.8410113879523813,0.029448052980952433,4.227004348666666
0.845366909,-0.016555664042857125,3.719099291738095,0.2556229957761905,4.330674822190476
0.850289142,-0.0587888558142857,3.5179887186904764,0.5167796555238097,4.435214524285715
0.855211524,-0.09226613948095237,3.2049083397380946,0.7388318039285715,4.5079382383809525
0.860133651,-0.12469590131428572,2.72946711097619,0.7996481387380951,4.641357762714286
0.865055805,-0.16817776004761903,2.037903686261905,0.5923465277380954,5.046428451333333
0.869977964,-0.2252092340857143,1.0896893370714285,0.09719899850000002,5.802634692095238
0.874900193,-0.3117342790761905,-0.10004775592857146,-0.555007484642857,6.832118558857143
0.879822348,-0.44590704224285715,-1.4592984148333334,-1.0483331947857142,7.917571574714285
0.884744502,-0.6424515617333333,-2.9181645796904765,-1.1384942969285714,8.984463697904763
0.889666885,-0.9258917599238095,-4.4279966665,-0.8742568589761904,10.116334223142857
0.894589137,-1.348410149447619,-5.902087719595238,-0.4646022885095239,11.287349695904762
0.89951129,-1.8455364307095241,-7.346055039404762,-0.12279938775238097,12.44905514890476
0.904433444,-2.275084373542857,-8.785354600166666,0.04707408262857144,13.540501845666668
0.909355904,-2.5470086223047623,-10.215393824309523,0.02574946510476191,14.539400707
0.91427806,-2.636909476385714,-11.556827826357143,-0.09967477237142858,15.411327626809525
0.919200442,-2.6088444250285714,-12.738575694357145,-0.20857700962857142,16.12464626861905
0.924122578,-2.4963728956285713,-13.766846415880954,-0.26218110225714286,16.72560851138095
0.929044732,-2.3228229455,-14.658150908976191,-0.2744099126190476,17.247650002
0.933966961,-2.1156968503095235,-15.417154230214285,-0.3259828655714286,17.69627226209524
0.938889366,-1.8936807031190475,-16.03009215740476,-0.4735586243428572,18.032947351190476
0.943811291,-1.643657468690476,-16.486896535071427,-0.7065172902619048,18.22827288490476
0.948733673,-1.398801281404762,-16.789269101380953,-0.9955311358333334,18.29218693952381
0.953655829,-1.2168143250714285,-16.931066150095237,-1.2868804162761904,18.258883836857144
0.958578289,-1.0939115627380953,-16.891031912761907,-1.4957094700809523,18.156637077095237
0.963500444,-1.0172010377238094,-16.62071396945238,-1.506273040909524,17.89781379238095
0.968422689,-0.9499555117285714,-16.075130925561908,-1.2228181467804762,17.335949982085715
0.973344843,-0.8696121318619047,-15.230172001514285,-0.6379807596280953,16.467645325704762
0.978267226,-0.7566369914380953,-14.09947894037143,0.11794548305761896,15.377288318085713
0.983189382,-0.5942320369809524,-12.755393848847618,0.7295020469623807,14.280829831561906
0.98811161,-0.3764082817904762,-11.274189634228572,0.9645584813433333,13.240808930466667
0.993033737,-0.08161236560000001,-9.706234163228572,0.8478517126766666,12.173857082228572
0.997955814,0.3537334998285714,-8.1414552448,0.540464951057619,11.1045274258
1.002878023,0.8763308752095239,-6.57427336227619,0.22652824067666663,10.071627099752382
1.007800408,1.3448231958285715,-4.9814268778476185,0.021916198448095194,9.128303209514284
1.012722568,1.6615155367809522,-3.3743908776571425,-0.0403411368519048,8.29847461870476
1.017644797,1.7954047748285713,-1.837868284704762,-0.015530328823333373,7.622480147609524
1.022566953,1.8218067714476187,-0.4432463901809524,-0.005288184537619092,7.134441046466667
1.027489126,1.7986663864476193,0.8257804570095237,-0.04606470977571432,6.797162677419046
1.032411509,1.728248959542857,1.9999088987714284,-0.1473266646852381,6.579142287895238
1.037333741,1.6378289121142857,3.0898229935333332,-0.2588701838233334,6.469496582180953
1.042256124,1.5499221484476189,4.082783242104762,-0.3407484655757143,6.470572170276189
1.04717828,1.448347676447619,4.956611130723809,-0.38933370165666675,6.562071246371429
1.052100509,1.3576217720190475,5.718793547961904,-0.41002513051380957,6.7385375505619045
1.057022564,1.305208768257143,6.4010806622,-0.4236270353566667,7.0112316170857145
1.061944792,1.3018445288285714,7.01676823667619,-0.4406101271709524,7.3823402188000005
1.066866948,1.3408039071238096,7.56616038917619,-0.4587098410661905,7.843372485990477
1.071789331,1.3987867180333333,8.06403464909524,-0.488618363852381,8.341511818666666
1.076711564,1.463056666595238,8.527563571714287,-0.5319704128714287,8.807667546000001
1.081633717,1.5316620016,8.95211291295238,-0.5956584611666667,9.232801241714286
1.086555871,1.599357099857143,9.322056542857142,-0.6884936973428571,9.601348833
1.091478263,1.6678081978571426,9.638191177285714,-0.8229990828190478,9.915792286952382
1.096400419,1.7485912868571425,9.896191414857142,-0.9898612243428572,10.177405137095239
1.101322648,1.8357929956666665,10.094469478809524,-1.1686706513904763,10.389030526380953
1.106245028,1.9238280966190477,10.241357598666665,-1.338515744247619,10.558462249571429
1.111167184,2.007191430952381,10.338913735571428,-1.4631635063523811,10.680568912666667
1.116089413,2.0811475231428567,10.39435373,-1.5154749835761905,10.756331522523809
1.121011472,2.134327229952381,10.423298426666667,-1.4978981727142857,10.795335843714286
1.125933701,2.1499761853333332,10.44328816695238,-1.4224818891285713,10.811545224380954
1.130855866,2.117451372523809,10.466525940238094,-1.298138794742857,10.817237815333334
1.135778249,2.079213372238095,10.488042149904762,-1.1373206493761905,10.820669588190476
1.140700496,2.0359249412333336,10.506633621809524,-0.9559735119952383,10.822641414380954
1.14562265,1.9696190817904764,10.528531846095238,-0.7748383741380953,10.830960445333332
1.150545032,1.8722320829952381,10.567012150857144,-0.6111559985190477,10.862387092
1.155467188,1.7457893667571427,10.62141740895238,-0.4676652867095238,10.91585197057143
1.160389417,1.6091257992809525,10.668671335142855,-0.33409047732857144,10.96601742247619
1.165311802,1.4714142288999998,10.69698678847619,-0.20366095399523815,10.998371797238095
1.170233967,1.3382435163285713,10.703506197047618,-0.0751178097952381,11.01012149342857
1.175156196,1.2119129419476191,10.680102393714286,0.0596586604333333,10.992723177238096
1.180078352,1.0874337077428573,10.626519793714285,0.19968832358571426,10.945354699142857
1.185000487,0.9631066115238094,10.551887239904763,0.3476212731,10.87641103247619
1.18992287,0.8377326072857142,10.473821595,0.5125546508952381,10.802592080095238
1.194845049,0.7088509399585714,10.403322447380953,0.7052285611333333,10.732699362476191
1.199767203,0.5728388008776191,10.350240026714285,0.9195436973714285,10.673995533428572
1.204689457,0.4337671859204762,10.319515864428572,1.1504833580857141,10.631139333428573
1.209611613,0.294598754577619,10.303085917857143,1.3886547879428572,10.59812748104762
1.214533996,0.1638055662823809,10.299379439904763,1.6067553130380954,10.579769813952382
1.219456151,0.050903572120476165,10.297474952285715,1.7904158429428574,10.56884451390476
