Time (s),Linear Acceleration x (m/s^2),Linear Acceleration y (m/s^2),Linear Acceleration z (m/s^2),Absolute acceleration (m/s^2)
0.126449024,-0.028100093199999995,0.6037092180285715,-1.421973983652381,1.8144877700952382
0.131371103,-0.007213236314285707,0.5164505498571428,-1.4145666987,1.7999308032380954
0.136293312,0.009377382347619053,0.43985888218571434,-1.4042625542238096,1.7777874913333336
0.141215161,0.019118191591904768,0.37494835681904765,-1.3901333639857143,1.7482596800952384
0.146137312,0.01977357233476191,0.3228279263809524,-1.3707915091285716,1.712926672
0.151059428,0.016382238344285722,0.2894914005095239,-1.3471246050333332,1.6773922071428569
0.155981813,0.008047905353809528,0.27659763576666674,-1.3169557963809524,1.6480588073809523
0.160903969,-0.004754999208095237,0.2797614446238096,-1.2746693208714286,1.6248427782857144
0.16582607,-0.024047667427142854,0.2935735381476191,-1.2180208450761905,1.608246938857143
0.170748223,-0.051728619350952375,0.3163852972428572,-1.1463040363947619,1.6014808828095237
0.175670109,-0.08775238231761906,0.3480311515761905,-1.0584438466519048,1.6075017753333334
0.18059226,-0.12772699941761903,0.38424862538571436,-0.9583488470519048,1.6218072552380953
0.185514375,-0.16633561999380952,0.4239740539095238,-0.846927752985238,1.6417968520952382
0.190436529,-0.20416652480809525,0.46501843105238094,-0.7269831351138095,1.6657280347142858
0.195358645,-0.24167100052714288,0.5076029979095239,-0.5989972319233333,1.6942370791428574
0.200280799,-0.2821295732938095,0.5545875171952381,-0.4653580893042857,1.7300422506666668
0.205202953,-0.3257258140128571,0.6055405591476191,-0.3263763269233333,1.7727837405714286
0.210125121,-0.4256288610795238,0.7570583675809525,-0.23028856745190476,1.849210562190476
0.215047275,-0.5222186704557144,0.9134755557761904,-0.12101951898523808,1.9274328618571428
0.219969659,-0.6171136671557144,1.0753154581857143,-0.0016822837947618847,2.0034735813333335
0.224891796,-0.7078010967604762,1.2427845509857143,0.12453661987190477,2.075854560857143
0.22981395,-0.7956040504033333,1.412700076690476,0.24824481120523811,2.153884307666667
0.234736104,-0.8817775734366665,1.581823414052381,0.3686848117766667,2.2408430033809523
0.239658022,-0.9639401941985714,1.7488454606285715,0.47922157157190476,2.3404978602380955
0.244580174,-1.0425797167333333,1.9076312181857145,0.5794865721100001,2.4503098283333333
0.249502351,-1.1173296214809523,2.0567693625761905,0.6673866685480953,2.5695292144285715
0.254424505,-1.1923784328761904,2.1922338889238095,0.7415183361671429,2.6939031601428574
0.259346659,-1.2663185779857142,2.3124013174761906,0.7991387650242856,2.8173515148571426
0.264268813,-1.3386815274285715,2.4220178355238096,0.8331710981361905,2.9403628223333333
0.269191198,-1.4084420940714284,2.5264001233809523,0.8416320498409523,3.0635478857142857
0.274113137,-1.4737856131047617,2.6261938413333334,0.8255311927880952,3.1833300236666666
0.279035289,-1.5361827553333331,2.718531988952381,0.7854754778880955,3.295110025095238
0.283957442,-1.6000873302857141,2.8069216524285716,0.7274751432119049,3.4028009001428576
0.288879823,-1.6679340939523808,2.8908573162380953,0.6513597620595238,3.506534108904762
0.293801979,-1.735738527047619,2.9739923648095234,0.5615745722071429,3.6072817559047614
0.298723902,-1.802724242095238,3.0547254199523812,0.458975621254762,3.7031481137619044
0.303646054,-1.8662464844761908,3.1301966168095237,0.3496357142071429,3.790991296952381
0.308568208,-1.9280679054761904,3.2028793834761906,0.23455037920714292,3.873719605857143
0.313490291,-1.985847859095238,3.2690932864761906,0.11703904996904764,3.947646153
0.318412443,-2.0414366153809524,3.329059294333333,0.0035947160023809847,4.014528163047619
0.323334587,-2.0917051405714284,3.3821706772380957,-0.10198156929285711,4.073800053761905
0.328256818,-2.1404914742380954,3.42356791952381,-0.19898718919285713,4.123846203238095
0.333178974,-2.1879389513333334,3.4483127707619046,-0.2865632833023809,4.162256017619048
0.338101084,-2.2293728136190474,3.4569726671904766,-0.3694810928023809,4.185879190333334
0.343023313,-2.2645703327619047,3.4458921410476187,-0.44224599753095234,4.191673008904762
0.347945469,-2.286586665047619,3.4211513883333335,-0.5054364279309522,4.180228769761905
0.352867603,-2.292425853904762,3.3808747700952377,-0.557941713897619,4.148303248571428
0.357789757,-2.283142612095238,3.32208634,-0.5984111914738095,4.0940396380952375
0.362711926,-2.2617752268095237,3.243801769857143,-0.6270954768976191,4.018152908619047
0.367634003,-2.230635279714286,3.1466639667142857,-0.6424365242714286,3.9219888316190477
0.372556145,-2.1892928055714287,3.031316916238095,-0.6452807621285713,3.805496548857143
0.377478376,-2.136436666809524,2.8996316280714285,-0.6372440954428571,3.6689621899047618
0.382400479,-2.0711259047857142,2.7556225289333334,-0.6177869517571428,3.514974181904762
0.387322631,-1.993665331947619,2.6000037704904764,-0.5891851889604762,3.344962141138095
0.392244861,-1.9066546616952382,2.4375808197285713,-0.549963236067619,3.1634632321714284
0.397167027,-1.814914941852381,2.2687584872,-0.50338837916,2.973992898195238
0.402089181,-1.7181688462428573,2.09701491083381,-0.4494891892647618,2.7786582974095237
0.407011349,-1.6159799837190474,1.9247664785009524,-0.39232075873619043,2.5794059484095238
0.411933503,-1.5084265130238095,1.749993287053238,-0.3314760442790476,2.377585453704762
0.416855657,-1.399253559990476,1.576477147465143,-0.26841914245047616,2.1787492434333333
0.421777815,-1.289514755942857,1.4042020477014285,-0.2055362847885714,1.9865133157
0.426699968,-1.1785788046619048,1.2339295725723811,-0.14223380758380952,1.8030054605714287
0.431622121,-1.0649006121847617,1.068837856122857,-0.07780866554571426,1.6316696482142856
0.4365442,-0.9472225620490475,0.9098905273847618,-0.009360950783809502,1.4745777217619047
0.441466337,-0.8292234148680951,0.7573451504704762,0.06653371436380955,1.336632709
0.446388568,-0.7118594176919048,0.609143724584762,0.14403338215428574,1.2181406126666667
0.451310709,-0.5997866107014286,0.4623353387371429,0.22024957606380957,1.1197554203333335
0.456232786,-0.4934111364157142,0.3180111921847619,0.29382014540190476,1.0448923897619047
0.461154937,-0.39543632799190476,0.17838771482285715,0.36382695731142856,0.9922665115714285
0.4660771,-0.3055376168490476,0.043699808584761905,0.4290228597971429,0.9601527231904761
0.470999331,-0.22262490070619048,-0.08584447789142857,0.4862722880590477,0.9450277428095236
0.475921487,-0.14337233125857143,-0.20973042732,0.5341778601733334,0.9458691995238097
0.480843646,-0.06830938081571428,-0.3279949974390476,0.5732748591971428,0.9638110804285714
0.4857658,0.004768570341428577,-0.44307047496761903,0.603988384044762,1.0015082215714286
0.490687953,0.07535833127952382,-0.5559997112866666,0.6261885271004763,1.059350017957143
0.49561003,0.14414247452238096,-0.6714360395723811,0.6416460034552381,1.1377033799714287
0.500532259,0.2103424725842857,-0.7897972302342857,0.6514337173,1.231837116709524
0.505454324,0.2708180916509524,-0.9114473225347618,0.6566733363285715,1.3387000625428571
0.510376476,0.3266396154319048,-1.037013225344762,0.6573910500476191,1.4554259236857143
0.51529863,0.37786271182714287,-1.1648330834208571,0.6544228600761905,1.5760511999142859
0.520220784,0.4254760444985715,-1.2964222213089525,0.6463686703380953,1.695922037185714
0.525142938,0.4714900440509524,-1.427371787307143,0.6340166699476191,1.8111708764904764
0.530065091,0.5171455195366667,-1.5584958865114285,0.6172740033809524,1.9229681283809525
0.534987326,0.5617782343119048,-1.6893290720142855,0.5974290988380953,2.031372930880952
0.539909482,0.6037277097619047,-1.8216633071809523,0.5777120029714286,2.137733252666667
0.544831636,0.6408663285571429,-1.9580033987904761,0.5583153374238096,2.2434325034761904
0.549753795,0.6707780914571428,-2.0977130133809525,0.5433217635,2.353520554047619
0.554675949,0.6947580433952381,-2.2371162998190477,0.5347130930190476,2.4677455679047617
0.559598021,0.7142009947904763,-2.3744875872666666,0.5305973809714286,2.584344623142857
0.564520172,0.7349098991714286,-2.5100700116190473,0.5322572340666666,2.7046538585238094
0.569442312,0.7588981375714285,-2.639795825476191,0.5400341415428571,2.8257407345714283
0.574364466,0.7869514709333333,-2.765619158666667,0.5540996200809525,2.9493768511904763
0.57928662,0.8175117117714286,-2.8899106410952378,0.5727771442285715,3.0760694414285714
0.584208774,0.8499575682809523,-3.0145665406666664,0.5938085267476191,3.205579715761905
0.589130699,0.8828849962428571,-3.138051640380952,0.6149286208666667,3.3346566362380954
0.594053087,0.9151093760857143,-3.259747652761905,0.6362152886761905,3.4620920803333326
0.598975242,0.9462339452095238,-3.3745977424285716,0.653082765947619,3.5820084505238095
0.603897396,0.9758614670666668,-3.4808493682380948,0.666153291104762,3.6928698531904764
0.608819535,1.007816658152381,-3.5795297963333335,0.6748113865904762,3.796932069666666
0.613741764,1.0407056553238097,-3.672278654,0.6787641487904763,3.895399752714286
0.61866392,1.076108032757143,-3.7620940776190475,0.6762460054619047,3.991684174428572
0.623586012,1.115928224147619,-3.847425279190476,0.6708157672271429,4.0851549618571426
0.628508164,1.1570712696904761,-3.931608904,0.6614876245333333,4.177866917904762
0.633430317,1.1970116495904761,-4.013079461619048,0.648863814902381,4.2676088360952384
0.63835249,1.2317247419095239,-4.0877768425714285,0.6326537197452381,4.349024588380952
0.643274644,1.2636469318952381,-4.152926899142857,0.6095167669442857,4.419662110333333
0.648196798,1.2932442199666667,-4.205099707571429,0.5777271951871429,4.475641503714286
0.653118971,1.3200587431761905,-4.242587418761905,0.5396536723057144,4.51473317
0.658040896,1.342273221152381,-4.266756273428571,0.4969936733009524,4.537702421333334
0.662963279,1.3595410812809525,-4.277388936,0.4562091972342857,4.545281978714286
0.667885434,1.3694579885238096,-4.275986557904762,0.41831829466285714,4.538943916428572
0.672807588,1.3732549406333332,-4.264178071714285,0.3851609602438095,4.521327293047619
0.677729718,1.3695735108380953,-4.240690594619047,0.3615783399533334,4.492538096095238
0.682651872,1.356655174809524,-4.203767685666667,0.3514372426009524,4.452270422571429
0.687574021,1.3327262714047619,-4.1526958828571425,0.35691800322,4.400746303761904
0.692496175,1.2974833676142858,-4.086208071,0.37615043243904767,4.336903924952381
0.697418329,1.2535702260047619,-4.004197779095238,0.4100416220914286,4.262506522809524
0.702340501,1.2010157505952381,-3.9096372694761903,0.4617939992295238,4.182148527142857
0.707262654,1.1409682773476189,-3.805752072952381,0.5298398055390476,4.09969494947619
0.712184807,1.0710429428485715,-3.693037169238095,0.6119193764628571,4.015255722809524
0.717106966,0.9915748504533333,-3.5739475544761903,0.7091797536819048,3.9322004914285715
0.72202912,0.9041381389628571,-3.4470816055238096,0.8217141862390478,3.8503859196190473
0.726951274,0.8100894728723811,-3.313770458761905,0.9459398023357143,3.771235588428571
0.731873428,0.7085036192009524,-3.1720452705714286,1.0785748460104763,3.693445034571428
0.736795582,0.6002895729438096,-3.0228966133333337,1.2153838459652382,3.616106315761905
0.741717702,0.4886472406247619,-2.869131712666667,1.3594818919080953,3.548664683476191
0.746639856,0.3724603833771429,-2.7140019904761905,1.5059497940185715,3.489156969142857
0.75156178,0.2542789503771429,-2.557778662142857,1.6536790851042855,3.4374276216666666
0.756483928,0.1350755190914286,-2.402199239957143,1.8008365187666668,3.394481811095238
0.761406313,0.01629913523428573,-2.246245290547619,1.946222665061905,3.3604317486666666
0.766328488,-0.10501377252761902,-2.0936536732,2.0848496641285714,3.3354090400000005
0.771250641,-0.23043439395619045,-1.943575245980952,2.217042471652381,3.3197580839047625
0.776172565,-0.35797986708476187,-1.7986742030761906,2.343088944738095,3.313825079190476
0.781094744,-0.48799010293714284,-1.6597328242523808,2.4611747066,3.3183557140952384
0.786016898,-0.6164171031942857,-1.5274457306809524,2.5696483736666664,3.330273742761905
0.790939283,-0.74456414898,-1.4034041591904762,2.669800326952381,3.351940075809524
0.79586143,-0.8715641970466667,-1.289072964847619,2.761878183904762,3.382644583666667
0.800783584,-0.9989420548180952,-1.1840783896809524,2.844743757047619,3.4207977780952383
0.805705737,-1.1280011495990476,-1.0897557678619048,2.9173748095714287,3.465652392952381
0.810627886,-1.2536559605419046,-1.0054882906714284,2.9814831983333336,3.514950130190477
0.815549809,-1.376411478804762,-0.9331606257761904,3.037202869142857,3.568746318809524
0.820471966,-1.498816484504762,-0.8717909569095239,3.0826360611904766,3.624749230095238
0.82539412,-1.6218186716333332,-0.8224384813380952,3.1159216335714284,3.680888883047619
0.8303165,-1.7465904298285715,-0.7871800036761905,3.1378649189047625,3.7380142680952377
0.835238425,-1.8688283392523808,-0.7663768586761905,3.1528513544761902,3.7984423678095243
0.840160558,-1.9906070573285715,-0.7594699065333333,3.1613226844761906,3.862584085095238
0.845082712,-2.1104631935333336,-0.7669217189142857,3.160124347285714,3.9262140536190473
0.850004865,-2.227264188619048,-0.7863312448666667,3.1524194876190474,3.990083051047619
0.85492725,-2.341124949,-0.8185931472476191,3.1375374340000004,4.053808767714286
0.859849406,-2.453405806,-0.8631093842428571,3.117701995952381,4.119048119571429
0.86477156,-2.5642066569523814,-0.9196125240333333,3.095058849904762,4.186826760095238
0.869693729,-2.6728245587619046,-0.9841780038095238,3.070195709,4.256730977619047
0.874615882,-2.7785524130000003,-1.0556087607428573,3.041110708666667,4.326567554333333
0.87953805,-2.885926082047619,-1.133956517504762,3.0070820422857145,4.398547208047619
0.884459973,-2.993776185238095,-1.2181222836142855,2.966629141904762,4.471062791
0.889382111,-3.104247513333333,-1.3074742782809525,2.9216094244761908,4.546123388238096
0.894304265,-3.2166377476666668,-1.4021831779142855,2.869707141666667,4.623106145904762
0.89922665,-3.328993172904762,-1.5041293217809524,2.812395708952381,4.702461818428572
0.904148791,-3.440166076047619,-1.6144063217095237,2.7500484671428573,4.784606350523809
0.909070714,-3.549352736714286,-1.7315970886238095,2.6843148924761904,4.869425211904762
0.913992881,-3.659977016,-1.8575985119571428,2.615487887809524,4.959720272238095
0.918915265,-3.7693162645714287,-1.9881598012809523,2.5446735961428573,5.053126514904762
0.923837421,-3.873746111285714,-2.1221161314333337,2.473891456952381,5.148417422238095
0.928759555,-3.973757834666667,-2.2588730794809524,2.4042313553333337,5.246855821809524
0.933681478,-4.070425135761904,-2.3954470327619046,2.3355115028095237,5.347723855904762
0.938603886,-4.165631998142857,-2.5337562163333334,2.2656991652380953,5.451602316095238
0.943525811,-4.256824856666666,-2.6746941577142858,2.1976546446666667,5.558508871714285
0.948447886,-4.343967233333333,-2.8193855455714285,2.1310488382857145,5.668186573761905
0.95337012,-4.427146150904762,-2.9657618715714285,2.067478174238095,5.780236756428572
0.958292276,-4.507940303666667,-3.11369258447619,2.007277079952381,5.896682884095237
0.96321443,-4.585770822666667,-3.2607692593809525,1.947008371333333,6.013927006761905
0.96813657,-4.65915558447619,-3.4090354442857143,1.885055417047619,6.130734444619048
0.973058724,-4.727416583428571,-3.5590562025714285,1.8237966525714286,6.247369662095237
0.977980878,-4.788630587666667,-3.714711779619048,1.7660507474285712,6.365669995380952
0.98290326,-4.84145144047619,-3.873615594095238,1.7113081330000002,6.483204887857143
0.987825185,-4.884543441523809,-4.038062583809524,1.6597101290476193,6.600900985095238
0.992747337,-4.92129264552381,-4.2058554944285715,1.6110450369523808,6.719178685190477
0.997669491,-4.947654315333334,-4.375621795666667,1.5679979834761906,6.835193817619047
1.00259157,-4.966198943809523,-4.544521082047619,1.530158604857143,6.949214327142858
1.007513722,-4.976535093095238,-4.710055850809523,1.4990077472380952,7.059510802619048
1.012435876,-4.977131094095237,-4.873836119952381,1.4735997460476191,7.165745252333334
1.017358107,-4.9690759975238095,-5.031085752285715,1.453760078904762,7.264958158761904
1.022280262,-4.953455902142856,-5.1846621263333335,1.4400849398571427,7.359690338476192
1.027202416,-4.932032902904762,-5.334105661904762,1.4305537938571429,7.450293531095238
1.03212457,-4.906676655571428,-5.479519764571428,1.426688177190476,7.538158398714286
1.037046729,-4.875150021904762,-5.623418626333334,1.429433271952381,7.623692069190477
1.041968883,-4.834986391380953,-5.766049725666667,1.4407429865238097,7.70625210052381
1.046891037,-4.786568914047619,-5.906879833761904,1.4598155078571429,7.786162532761905
1.051813224,-4.731079544238095,-6.043106873809523,1.4861395075238095,7.862012812285714
1.056735377,-4.668899297619047,-6.172736780952381,1.518616085952381,7.932130008476191
1.06165753,-4.602568478714285,-6.292518638428572,1.5573894693809525,7.994899165380952
1.066579654,-4.530517475809524,-6.400808402428572,1.6021425667142857,8.04785788057143
1.071501808,-4.453790619142858,-6.496077128761905,1.6505187068571427,8.08994698504762
1.076423957,-4.3733055703809525,-6.579179604809523,1.6984685602380953,8.121168619095238
1.081346036,-4.292585043571428,-6.651175181047618,1.7427696556666665,8.143844836428572
1.086268265,-4.209893953095238,-6.718253953095238,1.7833245594761906,8.162091084238096
1.09119042,-4.125002849523809,-6.7841008050000005,1.823208752095238,8.180235960190476
1.096112497,-4.035239503380953,-6.8515277590000006,1.8646929377142856,8.199501817619048
1.10103475,-3.9417172158571425,-6.919799032666667,1.9063341276190477,8.220152441857143
1.105956906,-3.844175157,-6.984626452095237,1.9481689815714287,8.238250526952381
1.110879088,-3.7416592438095244,-7.046952111380953,1.9885487499047618,8.254092769333333
1.115801242,-3.633549815047619,-7.105086508285715,2.0242522273333337,8.265825267761905
1.120723396,-3.5203562009047613,-7.163591362190475,2.054590565809524,8.277133885571429
1.125645521,-3.4050861993333332,-7.220179898428571,2.0781136069999997,8.286485243428572
1.130567598,-3.291886340904762,-7.273718516095238,2.0973588000952383,8.294055260190477
1.135489837,-3.1788608232380953,-7.323782648428572,2.1089447055714285,8.297637646142856
1.140411916,-3.0644488277142856,-7.368116787571428,2.111224940857143,8.294850733428571
1.145334058,-2.947536258380952,-7.403777122571428,2.1010059401904764,8.282553741285714
1.150256212,-2.8295054945714284,-7.428030036809524,2.0780960377619047,8.25887198895238
1.155178381,-2.711269634,-7.4421215058095225,2.0413353272380954,8.224588268333333
1.160100535,-2.5918340625238097,-7.451055594904762,1.9882437047142858,8.183875207952381
1.165022688,-2.4671981106666667,-7.451988969571429,1.9187387965476188,8.132538326095238
1.16994487,-2.337911878238095,-7.451533998809523,1.8337669372095238,8.077990753857144
1.174867332,-2.2042960722380953,-7.450847512238095,1.7359583221476191,8.02263453152381
1.179789256,-2.0631417432761903,-7.448839074095237,1.629726899142381,7.966258540857142
1.184711408,-1.9083948404238094,-7.444001311380953,1.515117758437619,7.90804928052381
1.189633562,-1.742213316557143,-7.429488590809523,1.39030966269,7.844049299857143
1.194555642,-1.5705969836809526,-7.399727980285713,1.2522490872519048,7.770588907142858
1.199477793,-1.3973800815952382,-7.354535920238094,1.1008221418233335,7.687435157238094
1.204399937,-1.2220682777619047,-7.291244779238094,0.9381613330614287,7.592176615523809
1.209322091,-1.0469128992571428,-7.213954448666668,0.7667224347280953,7.488426743761905
1.214244235,-0.8741767597333333,-7.1187113580000005,0.5903031936328572,7.372320191809523
1.219166389,-0.7069356234952381,-7.005365598714286,0.41359152649,7.2446124871904765
1.224088543,-0.5446375799238096,-6.87017150147619,0.2374896148233334,7.101290080428571
1.229010697,-0.38436162678095237,-6.715132054761905,0.0661653333471429,6.94296324847619
1.233932851,-0.22366739659047616,-6.5413717995714284,-0.09771609341476187,6.767557079714286
1.238855081,-0.06526982420952382,-6.348671947095237,-0.2487754768909523,6.57372938952381
