Time (s),Linear Acceleration x (m/s^2),Linear Acceleration y (m/s^2),Linear Acceleration z (m/s^2),Absolute acceleration (m/s^2)
0.119748586,0.4553653307190476,0.38958319310952383,-0.21231981152714285,0.700475356104762
0.124671048,0.48753171381904764,0.4157743844142857,-0.24840319190809526,0.753958743357143
0.12959328,0.5243151919190476,0.4342607188666667,-0.3072639536795238,0.8226713487999999
0.134515663,0.5632781450666666,0.44380052811904763,-0.38543566668904766,0.9055280525761905
0.139437896,0.6059683810238096,0.4425417660095239,-0.4732390929366667,0.9971138604000002
0.144360279,0.6556294766952382,0.4321313371633333,-0.5619301401842857,1.0931683151285714
0.149282434,0.7056544274619048,0.41285981298238095,-0.6439768533366667,1.1845912760000001
0.154204663,0.7535564254190477,0.38661500303952384,-0.714485185822381,1.2667110611571428
0.159127125,0.7912097566619047,0.3532656217204762,-0.773524279022381,1.335268658742857
0.164049281,0.8117523768523809,0.3182855254395238,-0.82449913627,1.3881357956619047
0.168971663,0.8201101869714287,0.2847399540157143,-0.8708493769938095,1.4307793900095238
0.173893911,0.8178606154285714,0.2544334778014286,-0.9132177095271429,1.464735682309524
0.178816294,0.8047478064523811,0.2294019530442857,-0.9508372804176191,1.4898019294666667
0.183738526,0.7825443781681429,0.20998952419190478,-0.9881742316271429,1.512283879147619
0.188660962,0.7517212829538571,0.19515285735380955,-1.0307036102557143,1.5398665215904763
0.193583349,0.7145713782109999,0.1836286189509524,-1.0821552308366666,1.577203108604762
0.198505579,0.6707528547252858,0.17541623773,-1.1458698486080952,1.6280765756190476
0.203427941,0.6541726172062381,0.12328528589142859,-1.2278517530414288,1.665797471
0.208350174,0.6227934738062382,0.08083119077714288,-1.3312318051604763,1.7252229968571426
0.213272286,0.5790696166871905,0.03416066748380954,-1.435937715404762,1.7841109790476193
0.218194668,0.5297115680776666,-0.01954775969809523,-1.5313892421190478,1.8341146167142857
0.223117149,0.4660698056252857,-0.057920950783809516,-1.619892628404762,1.8805815651904763
0.228039382,0.38511713572528566,-0.07930023712190476,-1.6928633876999999,1.923894966238095
0.232961764,0.3008700858824286,-0.08334161936476189,-1.7418088600809525,1.9519548880952382
0.237883983,0.22111532317290475,-0.07440114261714285,-1.7599171031285714,1.9544571448095236
0.242806366,0.14439713469195237,-0.04779533288857142,-1.7534479612714284,1.9351803955238096
0.247728521,0.06748189644433332,-0.009982285232857137,-1.7275508160333333,1.8946844671428569
0.252650971,-0.0007421493828095369,0.040664762781428575,-1.694474580795238,1.848852197714286
0.257573204,-0.05638909966852382,0.09974071578142858,-1.663939200747619,1.8074928930476188
0.262495586,-0.09228509723519049,0.16544257228142858,-1.6405942497285715,1.7790584895714285
0.267417805,-0.0954767159256667,0.2286481919385714,-1.6281326782523808,1.7730057210476193
0.272340188,-0.07137738013519049,0.285932240562381,-1.6201677209190475,1.7843569263809524
0.277262411,-0.01997980673042859,0.3320653841242857,-1.6255114362999998,1.819456472190476
0.282184793,0.048780953060047594,0.36593905144333333,-1.6474544349904763,1.874284425857143
0.287107021,0.12832133477761903,0.3878971464195238,-1.678755723361905,1.9382205354761903
0.292029175,0.21030295328238097,0.4001237180576191,-1.7099451082666668,1.9961015443809524
0.296951558,0.28888762145857144,0.404099765717619,-1.7335497283619046,2.0389648967142855
0.30187379,0.3695603368538095,0.3991048131542857,-1.7421388712190478,2.063443007
0.30679625,0.4474949553538095,0.39033243224047615,-1.731698964457143,2.0676919144761903
0.311718401,0.5260151454966666,0.37212100363095246,-1.6960651506952378,2.048548190857143
0.31664086,0.605648526177619,0.35818005184333335,-1.652414432742857,2.025685103238095
0.321563245,0.6865194795442857,0.3448655764061905,-1.5970676202190477,1.9993102252857144
0.326485497,0.7711121951585714,0.3238959574061905,-1.5373610458380953,1.9719945524285716
0.331407879,0.8868002438204761,0.29211643258238096,-1.4621070483142857,1.9501456769523808
0.336330098,1.0091977177109523,0.2568754801252381,-1.387190339257143,1.9342604788095235
0.341252252,1.1377931961823808,0.21495938362999997,-1.3181463367809525,1.9400058556666668
0.346174635,1.2656934787109524,0.15933104985380953,-1.265002480695238,1.9658121198571428
0.351096847,1.389873196387143,0.10041309742047619,-1.2380569124095238,2.0139381884285714
0.35601923,1.5091479619761905,0.03471585886333333,-1.2371409082190477,2.0809958976666665
0.360941463,1.6234581499285714,-0.037840571522380954,-1.2622135736476192,2.166445259857143
0.365863845,1.7315721001142859,-0.11405718974142856,-1.305992909904762,2.2636390142380955
0.370786078,1.8217969565238095,-0.1852468089890476,-1.3685833897619049,2.365012618238095
0.375708442,1.9095429068571426,-0.2548448564938095,-1.4455052047142858,2.478254702952381
0.380630903,1.982090910238095,-0.32103266682238096,-1.525434352142857,2.586574711095238
0.385553136,2.0551388660476193,-0.3774691416557143,-1.6069977851428572,2.697695318190476
0.390475533,2.135661868761905,-0.42453114200333336,-1.6903249763809525,2.815731100904762
0.395397766,2.2327894936666666,-0.4665740005461904,-1.7776495445714287,2.9483731886190476
0.400320148,2.3488497733333333,-0.5049618585461905,-1.8730840172380954,3.0995177080476193
0.405242328,2.4809072073809526,-0.5418234772619047,-1.9811695417142858,3.2710276970476193
0.410164557,2.6272590102857145,-0.5802955712619048,-2.1005395934761903,3.460904022428571
0.415086956,2.7775285867619046,-0.6197232873476191,-2.232097637095238,3.6630432290952384
0.420009189,2.9301902452380952,-0.6641192393476191,-2.375751063952381,3.8769618065714284
0.424931572,3.0851985271904763,-0.7115902857761904,-2.5213166815714283,4.094751131523809
0.429853805,3.246083327619048,-0.7565117605761904,-2.6589513562857143,4.311127411952381
0.434776187,3.388993512952381,-0.7942200912904761,-2.7940253132857142,4.508395609095238
0.43969842,3.5245446476666666,-0.8349139462809525,-2.9167395546285713,4.691909297380953
0.444620813,3.632371175761905,-0.8621946586904763,-3.0455114529142855,4.851850379
0.449543274,3.720155329857143,-0.8748397074428572,-3.175703979666667,4.994309346190476
0.454465507,3.794098002523809,-0.8789129455333334,-3.3045824084761906,5.126364421333333
0.45938789,3.8604924224285715,-0.877674897457143,-3.4295259827619047,5.25235958795238
0.464310122,3.9259459063809525,-0.8671239912,-3.5281260808571426,5.361446530333333
0.46923228,3.990000758857143,-0.8426920863333333,-3.6261745975714286,5.4696620226190475
0.474154663,4.055690890285714,-0.8149128953095238,-3.694372597238095,5.560778615238095
0.479076887,4.105430659809524,-0.7816198967947618,-3.760118972714286,5.638506533285715
0.483999269,4.156479665238095,-0.7604353260614286,-3.828469832761905,5.719440449428571
0.488921526,4.176884526333334,-0.7785419001709523,-3.9210577238571434,5.805646753571429
0.493843909,4.143599805380952,-0.8365589922804763,-4.030497573714285,5.889001216857143
0.498766141,4.049718754619048,-0.9293164699185714,-4.115235726095238,5.941197084666666
0.503688524,3.925636138238095,-1.0537299006042857,-4.124634731428571,5.939243281714286
0.508610986,3.7784663694095237,-1.2035163388661905,-4.001371542619047,5.873646094666666
0.513533218,3.6258438513619047,-1.3685173934471428,-3.69360286852381,5.830502814142857
0.51845561,3.4920229429809524,-1.5415387781138095,-3.1970841203333333,5.911527029333333
0.523377843,3.3889786601714285,-1.7149096730185713,-2.5488852432380953,6.117042297380952
0.528300225,3.3020341822666666,-1.903569153685238,-1.8414184819523811,6.391057292047619
0.533222458,3.197452145028571,-2.1168249564947623,-1.1408137027142855,6.678956838666667
0.538144612,3.0588224814571428,-2.351779438542381,-0.4822812196666667,6.949894158476191
0.543067067,2.882757870980952,-2.6093167751138098,0.1153603846190475,7.194860089857142
0.547989451,2.6855900557904757,-2.89935820759,0.690778834190476,7.445772879238096
0.552911684,2.4721443816857143,-3.218870591870952,1.226023685095238,7.689300470523809
0.557833853,2.2447453247999998,-3.5635850574423804,1.6986701145238092,7.905421110238096
0.562756236,2.012549567128571,-3.9273155050804767,2.100301935285714,8.08854141442857
0.567678468,1.7860403252904762,-4.309547272770953,2.403215362666667,8.251617780380952
0.572600928,1.5785843318666664,-4.701493390551905,2.6291393578619044,8.384859887809522
0.577523313,1.3926131526857142,-5.0772943783709525,2.7925532188190476,8.502346119333334
0.582445535,1.2216433826190476,-5.426897044676191,2.8852379759619047,8.598881035285714
0.587367918,1.053407754252381,-5.73355281352381,2.923845221342857,8.682951963
0.592290142,0.9021970346142856,-5.976934183190476,2.9422264536761906,8.755693524809525
0.597212524,0.7744886568766667,-6.150237128809525,2.958184444961905,8.81141892390476
0.602134732,0.6832527495861904,-6.249499366380952,3.0003237480571427,8.827818601095238
0.607056886,0.6045342760623809,-6.276532649999999,3.0785072287238093,8.792873432761905
0.611979355,0.5170655611242856,-6.249042215809523,3.1425708965980954,8.755107649285714
0.616901511,0.3937889925052381,-6.181366682095238,3.1453411275028573,8.709244091904761
0.621823894,0.2098870921719047,-6.076757294857143,3.0471928042171426,8.588288162571429
0.626746127,-0.05016128592333334,-5.9261297840000005,2.843556453121905,8.372456679809524
0.631668509,-0.3768575568757143,-5.7126518772666675,2.5871633156457143,8.110903618190477
0.636590971,-0.7310236559233333,-5.432022266514286,2.3275104968361906,7.859506494380952
0.641513204,-1.0825748480661903,-5.0890246928476195,2.092674736121905,7.6506230774285715
0.646435586,-1.4159551782090476,-4.684383927466667,1.8985943379314285,7.492935975285714
0.651357819,-1.722294795494762,-4.241711402371428,1.7081751181695237,7.342243815190476
0.656280207,-1.9639133272947618,-3.790000973847619,1.5404745095980952,7.168056019857143
0.661202363,-2.1401491365042853,-3.3312848424666672,1.396641939550476,6.965973882809524
0.666124591,-2.288079049023333,-2.8625232508,1.278135076550476,6.7486730433333335
0.671046976,-2.4212344744233336,-2.3748742925619046,1.2620058439314286,6.542688316047619
0.675969164,-2.578472327047143,-1.8806924154666669,1.3397876545933332,6.3628638065238095
0.680891623,-2.7716245631519048,-1.3922289001333334,1.46025617316,6.217283561238095
0.685813856,-2.9878433185138094,-0.9132065675142856,1.673097218445714,6.1091519943809525
0.690736254,-3.20992074781381,-0.44135684213333337,1.986309363398095,6.0249975976190475
0.695658487,-3.4233125939376188,0.01787819024761903,2.3832156484457143,5.953140339190476
0.700580869,-3.6273216846285714,0.45157860419999996,2.802254943302857,5.894985646523809
0.705503112,-3.8249012189095244,0.8579750840571427,3.1583058433980953,5.894683334571428
0.710425572,-4.011646466576191,1.236982378152381,3.4040568383028567,5.988362533714286
0.715347958,-4.171429219666667,1.5908451860095236,3.56534988547619,6.139816013714285
0.72027016,-4.2888988993809525,1.920698130342857,3.6425849370476193,6.271023319904761
0.725192314,-4.354108617380952,2.220219701485714,3.6718134654285715,6.35561345352381
0.730114677,-4.360233238714286,2.469011566438095,3.699989455190476,6.414466214714286
0.73503691,-4.313266583809524,2.6638523723238094,3.732214450952381,6.450578512428572
0.739959307,-4.227063723904761,2.8004503704285715,3.7613912538095233,6.455788970571429
0.74488154,-4.1197322436190476,2.8789183299047614,3.7760192554285714,6.423534246238096
0.749803922,-4.004573719809524,2.904797894666667,3.7664659137619045,6.351110917428571
0.75472616,-3.8910585357619047,2.9050604162380953,3.745704582809524,6.259584411190477
0.759648543,-3.8229652472380953,2.913316613190476,3.7134260563809525,6.193956278619047
0.764571004,-3.8072310515238095,2.9306784698095236,3.7088941051904762,6.185798448333333
0.769493232,-3.824896710190476,2.9545206569999998,3.7597613334761903,6.2335850008571425
0.774415615,-3.882649955238095,2.9745233229999997,3.807357617809524,6.310289989190476
0.779337847,-3.950926201619047,2.987858988047619,3.8758167085238093,6.404130081523809
0.78426023,-4.013610101809523,2.985451550809524,3.9886274337619048,6.512172589571428
0.789182386,-4.077414546619047,2.9685009321428573,4.115537189285714,6.6237353530476195
0.79410462,-4.152893736190476,2.9366452127142857,4.226815371285714,6.730347240666666
0.799027004,-4.244106644619047,2.8981533165238096,4.310129040761905,6.827454014904762
0.803949242,-4.336324498714286,2.8591937451904763,4.382084176619047,6.916864787095237
0.808871625,-4.42393133747619,2.8168686912857144,4.443821555047618,6.992574469999999
0.813793858,-4.514547858857143,2.7779571556666665,4.481457755619048,7.056868947619047
0.818716245,-4.612104972142857,2.7559526421428573,4.4694165615238095,7.111004434714286
0.823638478,-4.6999985262857145,2.7447595937619047,4.404523508809524,7.135961199761904
0.828560937,-4.7465539545714295,2.7282038757619045,4.2591715993333334,7.086595704285715
0.833483329,-4.76697152,2.7080460617142856,4.025548273528572,6.970193324714286
0.838405483,-4.750251134238096,2.680180016047619,3.760470891195238,6.8008745049523815
0.843327714,-4.703082992904762,2.6472860177619046,3.4633187579952383,6.603765953238095
0.848250163,-4.628869947904762,2.611644109095238,3.1460063698047622,6.411186528
0.853172319,-4.526506804238095,2.5712876376666665,2.8047318472333336,6.256604711000001
0.858094769,-4.393542704090477,2.521617401238095,2.4352148047095237,6.157067703619047
0.863017153,-4.2201453184523805,2.4522204484619046,2.0369962751380952,6.12127525452381
0.867939386,-3.9942197991095236,2.3592429260857144,1.6115823259952382,6.131486965904762
0.872861784,-3.705574843871429,2.232451880290476,1.1600550824238094,6.165117013666666
0.87778394,-3.351600036014286,2.0676355007190472,0.6915979399000001,6.209620654000001
0.882706093,-2.9473555109190475,1.8758253128619047,0.2061752264714286,6.245783127571428
0.887628533,-2.509801083347619,1.667022363004762,-0.32323434100476184,6.281159098714286
0.892550995,-2.031633731109524,1.4470455518619048,-0.8886035156238095,6.316919275285715
0.89747315,-1.5292619657761901,1.2253407963380953,-1.493586641052381,6.357813437238095
0.902395237,-1.0205648193,1.0084770278619046,-2.133715276290476,6.412566693952381
0.90731762,-0.5085514974428571,0.7973471751952381,-2.7641271055285714,6.46892380647619
0.912239829,0.001641396366666656,0.5815167526238094,-3.331370068528571,6.507881794
0.917162211,0.5075972514142857,0.3435737107190476,-3.822259935671428,6.5187456732380955
0.922084463,1.0091328259857144,0.08095732614761897,-4.232853740528571,6.488669169714285
0.927006846,1.476741436747619,-0.19938686490000007,-4.552132548385715,6.4253205626190475
0.931929073,1.861669958414286,-0.47280733504285727,-4.753461881814285,6.366117592285714
0.936851227,2.166322626604762,-0.7379718125190478,-4.848104166200001,6.3150983345238085
0.94177361,2.386469004509524,-0.9878910453761904,-4.888035453566666,6.282952675904761
0.946696081,2.5282721470619047,-1.2292292870428572,-4.860871739395238,6.273312969523809
0.951618237,2.6120145782761903,-1.464862194804762,-4.7921825470809525,6.279304617666666
0.956540468,2.653287052447619,-1.697729713852381,-4.678880074819523,6.282807543428571
0.961462923,2.6593398133,-1.9109578089952381,-4.516721031400476,6.252559697428571
0.966385307,2.6250458147333333,-2.0878203866000002,-4.333077928729048,6.172445875666667
0.97130754,2.5391228639619046,-2.208672574604762,-4.150508697395715,6.0484604247142855
0.976229928,2.4133154339142857,-2.2645819073809528,-3.966824734348095,5.88428092004762
0.981152084,2.257537817747619,-2.2555861927142855,-3.764368498443333,5.664203932857143
0.986074543,2.078491058452381,-2.1930320007190476,-3.559027545348095,5.408414229
0.990996776,1.8737581947714286,-2.079718808285714,-3.3411690775861906,5.123311985619048
0.99591892,1.6290244723190475,-1.928110281604762,-3.1077977971100004,4.819139321809524
1.000841379,1.3612691824523808,-1.758963573509524,-2.835710376348095,4.491093546714286
1.005763535,1.0751874596428572,-1.5959304287000002,-2.4985587978242854,4.138359470476191
1.010685995,0.7753347988809525,-1.4561989534142856,-2.122158109967143,3.7852951542857145
1.015608379,0.47965823254761897,-1.342806288157143,-1.7262696735480951,3.456266047238095
1.020530607,0.20274829083333326,-1.2468254324857142,-1.3102924339290476,3.188315304047619
1.02545299,-0.0577662239285715,-1.1648895286333334,-0.884938861452857,3.0161314072857146
1.030375222,-0.29250660323333344,-1.0972278089714287,-0.4612384834052381,2.963478318285714
1.035297586,-0.48575598211904764,-1.0574539076380953,-0.038855731309999975,3.0426707097142858
1.040219742,-0.6433352707047619,-1.0522169981142857,0.3803819391661905,3.2325513716190475
1.045142212,-0.7785135557142857,-1.0938068144952382,0.8031444097709524,3.5128525989047614
1.050064367,-0.9015785533619047,-1.1752693453523808,1.2135186382280954,3.8509321021904763
1.054986827,-1.033414979052381,-1.290027019447619,1.6372661841519047,4.2293278696190475
1.059909069,-1.1888877841761907,-1.4375298278285715,2.056332564842857,4.620041911809524
1.064831451,-1.366759391795238,-1.6407361966857141,2.4431024293761903,5.0242856562857146
1.069753607,-1.5663341660095238,-1.9234908336380951,2.7857253793238095,5.440423514571428
1.074676053,-1.7807946979142857,-2.302176092352381,3.0528760992761903,5.870750148142856
1.079598286,-2.012519502247619,-2.7709401534,3.1984815754095233,6.337029400761905
1.084520745,-2.2060325408428576,-3.277662989495238,3.199366380838095,6.825518202476191
1.089442906,-2.269606397261905,-3.7380867115380956,3.116482239457143,7.248399931047619
1.094365289,-2.21187501577619,-4.094705859590476,3.034544716361905,7.545628190952381
1.09928775,-2.088210395419048,-4.36562546922381,3.000244763742857,7.723156729619048
1.104209805,-1.961224587219048,-4.571914034033334,3.034756619390476,7.796213398809523
1.109132188,-1.8514643993142859,-4.711588129890476,3.133977525342857,7.794482530761904
1.114054406,-1.775835829852381,-4.789562270552381,3.299352574961905,7.839823538238095
1.118976788,-1.7649269253285713,-4.80338922264762,3.503380187971428,7.991498941571429
1.123899026,-1.8219036410428573,-4.755987506319048,3.7082270583047614,8.203582395761904
1.128821409,-1.923391589852381,-4.64979617064762,3.881828140685714,8.414539696047619
1.133743641,-2.054601726833334,-4.486333262166666,3.9925208006857145,8.581550798428571
1.138666029,-2.199012774138095,-4.273550305880953,4.025230807923809,8.675470908809524
1.143588491,-2.338755440885714,-4.0041885034047615,3.9869372418761904,8.69521239347619
1.148510723,-2.4547007715904763,-3.6725318317380955,3.879991772590477,8.636439326333333
1.153433101,-2.529053206304762,-3.2776993455476187,3.724558640019048,8.515218822619048
1.158355334,-2.550553918638095,-2.8305995236428574,3.530839048590476,8.336886048714286
1.163277716,-2.5224156897809524,-2.327705712452381,3.3328700887809526,8.126116787619047
1.168199862,-2.454000933542857,-1.757813283309524,3.1554469294952376,7.893013735285714
1.173122322,-2.3480747263999997,-1.1103881766904762,3.0391657380190473,7.641557312142858
1.178044555,-2.212781719495238,-0.3895016736904762,3.027177586352381,7.371766582285713
1.182966937,-2.059391868257143,0.3926922822619048,3.1439600103619045,7.061485069952381
1.18788917,-1.9553582051142857,1.1785965079285714,3.384640057790476,6.743695899619048
1.192811334,-1.9911210601142857,1.8744481744047619,3.6859338623619045,6.4906372294761905
1.197733793,-2.142193777966667,2.4022346109761905,3.9679751963142857,6.332795371571429
1.202656178,-2.3259666370619048,2.7681305066904764,4.172241767171429,6.232056200857143
1.207578315,-2.4765231105380954,3.006230308833333,4.268160859666667,6.178701242571428
1.212500774,-2.552783444509524,3.1362179800714283,4.223518431833334,6.141712773809523
1.217423007,-2.5366081588190474,3.1792237417190474,4.040348811461905,6.034997318695238
1.22234536,-2.4217901591428572,3.1494408369666664,3.7569244851047614,5.847713319980953
1.227267593,-2.2208196343333335,3.055114119438095,3.4318403324238096,5.599266955266667
1.232189975,-1.9649895450476191,2.9045625448666668,3.109866771614285,5.326573178457143
