Time (s),Linear Acceleration x (m/s^2),Linear Acceleration y (m/s^2),Linear Acceleration z (m/s^2),Absolute acceleration (m/s^2)
0.122549704,2.91465537347619,2.184689840914286,1.444049477509524,4.682992657952381
0.127471933,2.9769287055238096,2.217952843057143,1.059126859557143,4.811440847142857
0.132394012,3.0468667634761903,2.2588939906285717,0.6695719048428573,4.950736312619047
0.137316232,3.156301515714286,2.2995893740571427,0.29241476165238106,5.105341433428571
0.142238388,3.292755518904762,2.3614452352,-0.06325257968095223,5.274079349380952
0.147160537,3.4450778452857143,2.412413950342857,-0.3934560901571428,5.435639185809524
0.152082919,3.5931316162380953,2.4687907595333334,-0.7241003798238094,5.596646195238096
0.157005075,3.755706940619047,2.535554137866667,-1.0837316230142855,5.788108073857143
0.1619272,3.985797456571428,2.5961083243904763,-1.506567858585714,6.061773991190476
0.166849354,4.270900675428571,2.675231651104762,-1.942553673538095,6.390456245666666
0.171771277,4.5679854497142856,2.757246177771429,-2.3435305811571427,6.711257825380952
0.17669366,4.881042543095238,2.833777792342857,-2.6752817687761903,7.013071079857143
0.18161577,5.210912006428571,2.909711646152381,-2.9275850965857138,7.305288118619048
0.186537999,5.5501655341904765,2.986434688152381,-3.0995108087809524,7.594246530714285
0.191460045,5.8998319593333335,3.052711158961905,-3.2404461389428567,7.887820369000001
0.196382197,6.259618367809524,3.1171448698666664,-3.3926492304952376,8.19049944347619
0.201304351,6.620599094380951,3.1985831047714286,-3.5813760360190474,8.502754047
0.206226562,6.996659370190476,3.460410143619048,-3.643864654385714,8.946102385809523
0.211148718,7.306697437238096,3.7236363376666666,-3.6493218001952386,9.321737814190476
0.216070862,7.600644270857144,3.9639765648095238,-3.5409768535857142,9.643640987523808
0.220993245,7.867883660047619,4.190266892952382,-3.380125193347619,9.915076071238095
0.225915401,8.145218009380953,4.395116669761904,-3.2863270441571433,10.190081364095239
0.23083754,8.519747734380953,4.569620666,-3.383944034585714,10.581050882238095
0.235759463,8.954026608714285,4.707604794238096,-3.8177351495857144,11.203101209333333
0.240681601,9.362641107809523,4.840935843333334,-4.525854178490476,12.014676735380952
0.245603985,9.691339493095239,4.927991787571429,-5.259445825919048,12.781307242476188
0.250526141,9.911433946619047,5.016512643714286,-5.7132623080142855,13.259265913380952
0.255448295,10.032411711666665,5.051013265333333,-6.058675811395238,13.581547800333334
0.260370449,10.023433299380953,5.033416555047619,-6.37303910934762,13.80091000285714
0.265292678,9.874367305285714,4.971711942142857,-6.42737434025238,13.725176301095237
0.270214757,9.627963281904762,4.829304950619048,-6.398054281871429,13.50070663390476
0.275136985,9.423037358761905,4.612797995433334,-6.555985814061906,13.439325358666668
0.280059155,9.20389989452381,4.415055905109524,-6.898496287109524,13.501712919142857
0.284981309,9.053896960809524,4.228981003902381,-7.343095620442858,13.63159121390476
0.289903692,8.934042624095238,4.049861961916666,-7.765524333390477,13.700482418190477
0.294825867,8.791941018380951,3.8950061571547616,-8.099870718609523,13.667643988190475
0.29974779,8.593859570190476,3.745003876307143,-8.351390094914287,13.543391606333333
0.304670201,8.34815364757143,3.559869022654762,-8.511428049533333,13.337490182857142
0.309592126,8.116380271095238,3.3013997937309525,-8.622971324580952,13.114440045142855
0.314514264,7.859032062857143,2.9863310776309526,-8.68372470415238,12.819808867761905
0.319436649,7.534924938380951,2.6465140418833335,-8.727884797714285,12.428548351761906
0.324358805,7.180432069476191,2.266320720407143,-8.683616843147618,11.963389730666666
0.329280959,6.786008573476191,1.8778522334642855,-8.416969368052381,11.502956493761904
0.334203112,6.291564186190477,1.5391687120119049,-7.829852990338096,11.014734966190478
0.33912528,5.711907971047618,1.2254516745785715,-6.8785303895285725,10.303004049666665
0.344047509,5.116176866047619,0.8988363381642858,-5.695065544671429,9.35917819804762
0.348969665,4.553266763419048,0.5849522445452381,-4.567668461480952,8.387393110476191
0.353891814,4.048802889625714,0.2630120041166667,-3.799507607290476,7.665292521047619
0.358813968,3.735449067292381,-0.0626974750738095,-3.072547901719047,7.200255874238095
0.363736122,3.583680632673333,-0.35426956902619045,-2.319432111528571,6.852467603619048
0.36865828,3.502145974530476,-0.5848307119309524,-1.8015927819095237,6.683273204428572
0.373580434,3.4501139239114282,-0.7087016637404763,-1.4321894537190476,6.528935287952381
0.378502593,3.349495357149524,-0.7027355680404762,-1.0294960586190474,6.175017565238095
0.383424747,3.243190825149523,-0.6479518547880951,-0.551818157190476,5.7327588371904765
0.38834713,3.0339943938638094,-0.5629701890571429,-0.025748445071428393,5.230326137523809
0.393269285,2.7701367737685714,-0.4559249473095238,0.3239544126904764,4.835548512333334
0.398191439,2.4980614782923807,-0.3485168466428571,0.5435477445952382,4.545917892380952
0.403113593,2.2443852341257142,-0.2347788945095238,0.6481912143571431,4.367700174142858
0.408035822,1.9959600981266665,-0.10292817504761902,0.6309374521666669,4.312152352761905
0.412957978,1.7672816758314287,0.047991011876190495,0.5477539138333336,4.344977245190476
0.417880132,1.5619201960457143,0.21799172964285715,0.34885983316666686,4.496829165666666
0.422802281,1.3953809101742858,0.3981427267238095,0.033407331261905,4.748179530571429
0.427724663,1.3233258598885715,0.5772858234380953,-0.3556000376857141,5.039541227666667
0.432646814,1.359120288269524,0.7385505438571428,-0.810734758685714,5.247308460428572
0.437568737,1.5177044231742858,0.8689896848333334,-1.214038472733333,5.3018924695714285
0.442490908,1.5892318929361906,1.0001660671238095,-1.7886860583047615,5.386284322571429
0.447413062,1.6412634610314285,1.1415079264904762,-2.2977598153047616,5.456376950428572
0.452335446,1.7305596543742856,1.3147237414904762,-2.6896577661619046,5.551552075476191
0.457257617,1.8716991813580954,1.5484100751095238,-2.9581107624952376,5.677070503047619
0.462179846,1.8996276131676193,1.8957107408238094,-3.267159857923809,5.720674370380952
0.467101925,1.87136432812,2.2962176459666663,-3.603802622780952,5.753538099047619
0.472024144,1.8630616508342859,2.7408373129190475,-3.9541891969714285,5.894773905761904
0.4769463,1.9005539828342857,3.183501975919048,-4.273518470114285,6.182546845380952
0.481868453,1.9302126977390477,3.595713709119048,-4.535197130309523,6.567943636190476
0.486790597,1.9598440285485712,3.9496065549047623,-4.824693949452381,6.979209782809524
0.491712674,1.9950346448819047,4.3076526665238095,-5.198186034238095,7.460463866761904
0.496634826,2.0333656483104763,4.691898402619048,-5.511020569571428,7.945583187666666
0.501557057,2.0439966986914286,5.091538735666667,-5.778894958047619,8.417718674761906
0.506479213,2.0357249363866665,5.4201444442857145,-5.913236186619048,8.755287538190478
0.511401367,2.004489841804762,5.724252280571428,-5.8941236223809526,8.979102934952381
0.516323521,1.919918221957143,5.904776913619047,-5.580623808404762,9.001455481285713
0.521245679,1.8203864578857145,6.024206104571428,-5.144361200833333,8.922623495
0.526168062,1.766300314804762,6.060935054333333,-4.507516406880952,8.795368958238095
0.531089987,1.687375363695238,5.966800763333333,-3.941836232309524,8.543500388142856
0.536012356,1.5903370833238093,5.862563377171429,-3.3842908428809526,8.402912190571428
0.540934512,1.4588944683714287,5.698487616552381,-3.0882602760714284,8.27104581004762
0.54585674,1.5150977541809525,5.558744186290475,-2.743030267195238,8.106019160761903
0.550778872,1.606446288752381,5.484625943933334,-2.5136514647619044,7.997927983857143
0.555700949,1.7309959614666668,5.277054749647619,-2.47501713047619,8.036803965095238
0.560623105,1.9299577189428572,5.055117371409524,-2.526030509333333,8.171934198857143
0.565545259,2.092616523895238,4.893570516647618,-2.5835576995238094,8.22741529695238
0.570467495,2.238243375371429,4.636504561971428,-2.704838233428571,8.261228814333334
0.57538965,2.4167120001333338,4.308419702616667,-2.754958144333333,8.246806408666666
0.580311804,2.5151913732285713,4.02109213490238,-2.75026368247619,8.132886842619047
0.585233964,2.547120945657143,3.7661632054261904,-2.6987692203333333,7.9502379633333335
0.590156118,2.516555899561905,3.568917652997619,-2.5947318219523807,7.73820051357143
0.595078272,2.4397264718,3.2783169217119044,-2.398558313,7.3879826993333335
0.60000066,2.4019458519904764,2.776070039345857,-2.120234299333333,6.888161702380953
0.604922815,2.424581805752381,2.2493165112363336,-1.8344165739999998,6.368283948476191
0.609845044,2.4429645650809526,1.8250830406029996,-1.644732727952381,5.938373062904763
0.614767195,2.526096752614286,1.4353404845553808,-1.546420770095238,5.579801231428571
0.619689272,2.705312847995238,1.1674716194601427,-1.6946206803095234,5.386799504095238
0.624611438,2.9284142311380954,0.9610760444601427,-1.8905857773571424,5.238492427857143
0.629533592,3.110381279566667,0.8392764278887141,-2.2602459277857143,5.125116081857143
0.634455822,3.2662234645809525,0.861964623698238,-2.601601069928571,5.183031450333333
0.639377978,3.373774846285715,0.9483119084791903,-3.0500831292142854,5.233202689190476
0.644300132,3.4181982334761907,1.152528627145857,-3.427724080452381,5.382829715285713
0.649222209,3.3676790055238093,1.3540880117887144,-3.718299513804762,5.530274770285715
0.654144438,3.3109563304761904,1.4932949236220476,-3.9153485071428573,5.65293997052381
0.659066594,3.226262228809524,1.7563423065268093,-3.955032178380952,5.661122716857143
0.663988991,3.042888085047619,2.0057238203363332,-3.9555066540476185,5.581742077047619
0.668911147,2.9036200840952384,2.1386440514791905,-3.9632890905714286,5.550291811809524
0.673833301,2.784641515619048,2.314179957393476,-3.8946797507142854,5.490578658666667
0.67875551,2.6281660397619047,2.518433953367286,-3.8406208356190477,5.416806031285715
0.683677589,2.547422091142857,2.632420178700619,-3.8054008257142855,5.391324338714286
0.688599722,2.5472042787619045,2.566920895700619,-3.7639612016666666,5.338503395285715
0.693521876,2.5451519035238097,2.408387745443476,-3.655246303238095,5.183273143571428
0.698444024,2.5937348604285715,2.3320981257291904,-3.5431669667142853,5.081058209857143
0.703366178,2.618563901809524,2.425350413047619,-3.5075532595714285,5.094594679761904
0.708288332,2.6329248973333335,2.5144225557285713,-3.498579780285714,5.126653675571428
0.713210558,2.6995658477142856,2.5613825065523805,-3.473988493333333,5.169686971190476
0.718132714,2.7687342734285716,2.6024317939809523,-3.4427097752380953,5.208037743857143
0.723054868,2.8221530403333333,2.6472153124095237,-3.4109669129523805,5.240110391
0.72797725,2.8614298048571425,2.6868973544571424,-3.3983562390476187,5.275028112952381
0.732899406,2.9044249966190474,2.7176053041238095,-3.3783824728095233,5.303389529571429
0.737821565,2.9617948078095235,2.7426000577904763,-3.3258166597142855,5.32023934047619
0.742743719,3.035024484,2.7393787275999997,-3.228596034523809,5.310589836380952
0.747665873,3.1174722512380955,2.7242779192190474,-3.1246136994761904,5.288511058190476
0.752588022,3.229169141666666,2.704624769219047,-3.04333412647619,5.289586524809524
0.757510175,3.294782718,2.6844768098380953,-3.0080828496190475,5.290309807714285
0.762432329,3.324628625571429,2.6389629074571426,-2.965416891238095,5.257369319428571
0.767354549,3.3749703792857146,2.5673861077904765,-2.929186134142857,5.228821842
0.772276705,3.4749251547142856,2.479591349742857,-2.9141417969047616,5.23728373304762
0.777198859,3.610202630333333,2.373376014695238,-2.922011801190476,5.281481450285714
0.782120955,3.747355529238096,2.2764218733619046,-2.9164995636666666,5.322881840619048
0.787043183,3.851473717476191,2.2333219363619046,-2.948692997333333,5.386602340285714
0.791965568,3.9547338145238093,2.192645177957143,-2.9712193296190472,5.470372584285714
0.796887713,4.136127846571429,2.1590007976428573,-2.9874964725714284,5.619673000285714
0.801809867,4.324530465238095,2.0569326089999995,-3.031745848238095,5.782792617047619
0.806732021,4.500667515238096,1.9104934143333334,-3.053225840857143,5.921503538
0.811654156,4.6730743703333335,1.7511406519523807,-3.0848264580952383,6.065674717
0.816576309,4.8235950810476185,1.6037009847619044,-3.102135794523809,6.18506383547619
0.821498232,4.96182256652381,1.4479606499047617,-3.098091273095238,6.285958026714285
0.826420615,5.098790316333334,1.2796590335238094,-3.0902326560952376,6.385315926380953
0.831342756,5.236734254,1.1058107508095236,-3.0731956107142855,6.48209410947619
0.83626491,5.398500306238096,0.9328484712857141,-3.0115626596190475,6.596355062666667
0.841187064,5.501629397952381,0.7549420942857142,-2.991227325952381,6.669156741761905
0.846109252,5.539070424571428,0.5732093318571427,-3.006059323047619,6.69519846147619
0.851031405,5.553039278285714,0.3677933279999999,-3.008504464523809,6.68272194347619
0.855953634,5.524346374285715,0.14211481028571418,-2.986255322190476,6.620114364047619
0.86087579,5.571563357333334,-0.09045814261904772,-2.8993706987142853,6.585630809952381
0.865797944,5.609525294428572,-0.3347783876190477,-2.8582842747142854,6.582936221857143
0.870720327,5.628468626904762,-0.5838738615714286,-2.776936707,6.564959919047619
0.875642218,5.637503623857143,-0.8343438072857144,-2.6123443266999997,6.535208523904763
0.880564369,5.617818855,-1.067375664857143,-2.439715418790476,6.4896719922857145
0.885486518,5.590083326476191,-1.3375472844761904,-2.2882331361190476,6.449180735523809
0.890408672,5.552465098095238,-1.657526429857143,-2.0872768979380947,6.359674641095237
0.895330826,5.464317775761905,-1.8489538593571428,-1.9061506581952379,6.254902466047619
0.900253226,5.3243640716666665,-2.0003861500238096,-1.8258375660047617,6.142672113285714
0.905175382,5.172536690904762,-2.082982051857143,-1.8048016677190475,6.02914422347619
0.91009754,5.029036794285714,-2.0828817173809524,-1.7920821954809523,5.902096605380953
0.915019694,4.878760087952381,-2.0322236687380952,-1.761670293528571,5.749313341952381
0.919941923,4.740502766095238,-1.9593693343190475,-1.730460478385714,5.606430677952382
0.924864074,4.611296426619047,-1.8613482386333335,-1.6978279060761903,5.472834402904762
0.929786228,4.485478526,-1.7344254268714285,-1.6431469512571426,5.340726392809524
0.93470861,4.344498248238096,-1.5894309977285714,-1.5599913823847618,5.195739231666667
0.939630511,4.144895099380952,-1.425962858252381,-1.482281909075238,5.011861587095238
0.944552663,3.9748309111904767,-1.251951003347619,-1.3541369097276188,4.851594353761905
0.949474797,3.848932300190476,-1.077139952347619,-1.2014631969276188,4.720308244428571
0.954396951,3.756990671047619,-0.8986847641571429,-1.0515211536371427,4.61795877052381
0.959319125,3.704878159857143,-0.7096272947761906,-0.9166766731228568,4.5445418490476195
0.964241279,3.632503361857143,-0.5067601047285715,-0.8153384852847617,4.467866717
0.969163663,3.5875574633809526,-0.277345528157143,-0.7265451962038093,4.402045296380952
0.974085588,3.5552255199047615,-0.038191143919047696,-0.6766538151657141,4.354858671142857
0.979007971,3.5078737054285716,0.2035327568428571,-0.6964050524276187,4.296057035523809
0.983930204,3.476878200238095,0.4423218043190475,-0.6948983385466664,4.241594788571429
0.988852334,3.4516317390476186,0.6800146145571427,-0.6770554344595235,4.179074827761904
0.993774488,3.442168973761905,0.899205847842857,-0.6575110536976189,4.12274270452381
0.998696641,3.4773368267619054,1.0873686571523808,-0.6011542433119045,4.106450428666667
1.003618785,3.5546760218095237,1.2438502339619046,-0.5025346233023806,4.120015343333334
1.008540939,3.642671687238095,1.3533833743147619,-0.3440490488976188,4.137974922619047
1.013463103,3.722147975619047,1.4009847566195237,-0.18757752397380928,4.172204483047619
1.018385257,3.757229827666667,1.4044542322957143,-0.0628592865071426,4.179927764238095
1.023307415,3.756227731666667,1.381064613275238,0.03395137793095263,4.162708545476191
1.028229569,3.719718972761905,1.3430517556833332,0.09713199769285741,4.114431751904762
1.033151722,3.6558059282857145,1.293849182235714,0.14339294922619072,4.039680075904762
1.038073875,3.582311073857143,1.239584087597619,0.16681751998714311,3.9535153506666667
1.042996259,3.5144368352380955,1.18050899605,0.1683312352871431,3.8671830315238096
1.047918415,3.4298315529952377,1.1189680007357141,0.1593966636585717,3.763228925523809
1.05284063,3.330709269995238,1.0626441375214284,0.16503399716333358,3.6554155379523814
1.057762785,3.217295368452381,1.0102988502833332,0.1813921399680955,3.541546772380952
1.062684939,3.086929650452381,0.9663820912357143,0.22511333191095265,3.42309386852381
1.067607078,2.937043317652381,0.9291794264261903,0.2655670937252384,3.2950145759523815
1.072529155,2.781582131185714,0.9053448516166667,0.34218904623476215,3.172800851190477
1.077451413,2.6093294661999997,0.8976307503785714,0.39609942797285735,3.054923440904762
1.082373569,2.417503369604762,0.9171056995214284,0.46740314186333365,2.957106812904762
1.087295966,2.186103312652381,0.9634066557119046,0.5176192837776193,2.8658166284285715
1.092218122,1.9223535457142855,1.0410313286642856,0.5680370479714288,2.7897696306666666
1.097140045,1.6386622586666666,1.1519240899976189,0.619097143409524,2.7343214814285717
1.102062196,1.3380570637619047,1.2915934231642854,0.6508538084238098,2.689405652904762
1.106984581,1.026848157142857,1.4562061889738094,0.6764662876047621,2.6557249508095238
1.111906737,0.7047928229999999,1.6433437239066664,0.6813299528238098,2.634214977666667
1.116828876,0.3844399053809524,1.8465120476019046,0.6706023344000003,2.628083243714286
1.121751105,0.11109348128571432,2.0612756648542856,0.6626312392142859,2.6823153224761906
1.126673179,-0.12178532857142857,2.2719855304557144,0.6541116691809525,2.7839802206190476
1.131595102,-0.31963290490476187,2.474211474933333,0.6546034316238097,2.9207507517619047
1.13651748,-0.4933838106666667,2.665163998047619,0.655336099009524,3.073403681714286
1.141439636,-0.653439289047619,2.8466595609714282,0.6570898620809525,3.2391217998095234
1.14636179,-0.8127579518571428,3.017585078852381,0.656086338414286,3.4012116330952384
1.151284018,-0.9538341448523808,3.1792147386428575,0.6599556718523812,3.562122112047619
1.156206174,-1.0792817161380952,3.327036261523809,0.6575408137952383,3.710373282428571
1.161128323,-1.196678479547619,3.461477603190476,0.6564245280761908,3.8481774879523805
1.166050477,-1.3108037199761906,3.5803802637619047,0.6500085748333335,3.972681763857143
1.170972631,-1.4291502436523809,3.687998311857143,0.6487718607666669,4.0922707551904765
1.175895028,-1.546128718661905,3.7823364621428572,0.6419323384761908,4.197760622
1.180817184,-1.6463276247714287,3.862948031666667,0.6447547191666669,4.292016870190476
1.185739338,-1.7277067687476193,3.923678602523809,0.6281130995095241,4.361003012714286
1.190661482,-1.7786344375571428,3.9675104050952377,0.6141235771619049,4.411550943619048
1.195583636,-1.7987373443333337,3.9967230161428566,0.5881509071380955,4.4378148231428565
1.200505805,-1.7862744388380951,4.01098715695238,0.5580214772904765,4.4408400768571425
1.205427959,-1.7524979143,4.01678439552381,0.5292644784666669,4.430976350428572
1.210350117,-1.7034662025380953,4.015744061761905,0.5052987138380954,4.412190065333333
1.215272346,-1.6322848243476191,4.004086857809524,0.49067490440952405,4.380027473095238
1.220194502,-1.5473956763952381,3.9811340060476192,0.48392780763333365,4.334968190333333
1.225116575,-1.454917156295238,3.9498812471904765,0.4800991415952384,4.279994229142857
1.230038804,-1.3616239209,3.9141373294761905,0.47339533198571454,4.218983574428572
1.23496096,-1.2688202028380953,3.8774740469999993,0.45948633197142885,4.156297887190477
1.239883356,-1.1748171541380952,3.8368673325714284,0.43523566496333366,4.089755384619048
1.244805512,-1.0763347234666665,3.7881508669047617,0.4021723788490479,4.014344802571428
1.249727666,-0.9761166796714285,3.7326422079047616,0.3602340923966669,3.932792243904762
