Time (s),Linear Acceleration x (m/s^2),Linear Acceleration y (m/s^2),Linear Acceleration z (m/s^2),Absolute acceleration (m/s^2)
0.2043048334,0.6873781111566666,-0.4366917692019048,0.7934321920809524,2.143483010209524
0.2142508334,0.8205228382280952,-0.4715376383161905,0.7964427563666666,2.2062616590666666
0.2241968334,0.9544155355328572,-0.5048585257495238,0.7973314496047619,2.261852916638095
0.2341438333,1.0403368333709524,-0.49305008765904756,0.8312485024333334,2.266736648209524
0.2440898333,1.137589100637619,-0.5085267625642856,0.8712519777285714,2.3129211837857144
0.2540358333,1.2445512211280951,-0.5635812215528572,0.8539961204,2.3926973435809527
0.2639818334,1.3170718283480953,-0.5841415632004763,0.8435213904380952,2.448317643838095
0.2739288334,1.3350915930814284,-0.5841594111290476,0.8263511252095238,2.4648846749
0.2838748334,1.3167006032528572,-0.5554015237338095,0.7737866612523809,2.4324827084238096
0.2938208334,1.3429103367242856,-0.5236158088528572,0.6982431688142857,2.438683215376191
0.3037668334,1.3570490190290474,-0.4630027360814286,0.5711704201952381,2.402935193947619
0.3137138333,1.3286004528190476,-0.3653808534147619,0.42298855480952385,2.3337266534714285
0.3236598333,1.349855683842857,-0.3074251452671429,0.15949586566666665,2.271853452280953
0.3336058334,1.3417794886999999,-0.22926001194333331,-0.1831188675714286,2.230576948995238
0.3435518334,1.2922595028714285,-0.10197633199095238,-0.49705356490476194,2.1730764450428572
0.3534978334,1.272775630142857,0.008117271837619063,-0.7895842787142858,2.118561474852381
0.3634448334,1.2420485049190477,0.1424180560757143,-0.9974488135238095,2.102230203995238
0.3733908334,1.1861411529571428,0.27666281843285717,-1.071538938747619,2.0979669384714286
0.3833368333,1.1236966939380952,0.38634923327571424,-1.0615400607631904,2.0863074315666665
0.3932828333,1.0404096781047618,0.47699342467095235,-1.0180868117674762,2.0537041465190478
0.4032298333,0.9626853273857143,0.5791182202566667,-0.9768647767317619,2.0203303689952383
0.4131758334,0.8998786090380951,0.7002768722423809,-0.910696403587,1.981823136138095
0.423120875,0.8270577681571428,0.8022090856090477,-0.8394025282584285,1.9414544341380953
0.433066875,0.7608134856476191,0.9011774427995239,-0.7512337834774764,1.9039994312333333
0.443013875,0.7409918631285715,0.9534830699947618,-0.6964288335441429,1.9348156507095235
0.4529598751,0.6884616575904762,1.0177702825,-0.6497412111584285,1.943115342614286
0.462905875,0.6203347595857143,1.1219763109761904,-0.5482651502346191,1.9303414197095234
0.472851875,0.5664621377714286,1.1975707716285715,-0.43217260946319047,1.9409273177095236
0.482798875,0.5370107810380953,1.245069263652381,-0.35447881740128573,1.9860900286190477
0.492744875,0.49025795869,1.2933901108285715,-0.2923923576489048,2.013795574761905
0.502690875,0.42860840429,1.3316091412095237,-0.2377125381346191,2.016664673047619
0.512636875,0.38672437047095237,1.3611773273761905,-0.19196208517271432,2.027707329809524
0.522583875,0.3814016535423809,1.3798328689,-0.17874676522985716,2.043093389952381
0.532529875,0.31435677929,1.4532329391333332,-0.10229862498223811,2.0221114641428573
0.542475875,0.2688808565852381,1.5161202029047618,0.020800912765380934,1.962121496047619
0.552421875,0.25317082209,1.5335155441904762,0.11028285866538094,1.9215896774285717
0.562368875,0.20101701366142857,1.548306507761905,0.1840325923844286,1.8936594816666665
0.572314875,0.12057292107571428,1.5488425025238095,0.2434128215177619,1.8728902755714287
0.582260875,0.030858687561428573,1.540613757714286,0.27526962183776194,1.871334925952381
0.592206875,-0.05376550989571428,1.535860222,0.29926935142,1.8768152045714288
0.602152875,-0.12101090535761903,1.5341729939999997,0.33404123933380947,1.8870328576666666
0.612099875,-0.18645769728619047,1.5369618652380954,0.3744691946361905,1.8964569645238096
0.622045875,-0.2639678450195238,1.5418407819523812,0.39840017766761904,1.9017357935238097
0.631991875,-0.3529582454242857,1.5515372614285714,0.39006719926619043,1.913456494
0.641937875,-0.43499323314333327,1.5696090977142858,0.35839881851380956,1.927300921
0.651884875,-0.49158693683857146,1.591986336333333,0.3113138917204762,1.9321327107142856
0.661830875,-0.5207631716352381,1.6158205618571428,0.2829347368585714,1.932875977428571
0.671776875,-0.5384681891,1.6252938726190476,0.30480449281095234,1.9544405159523808
0.681722875,-0.5654277235571429,1.5975469966666664,0.3727210442395238,2.006555036095238
0.691669875,-0.6027970386380952,1.5265394678285715,0.4782794083823809,2.095725609857143
0.701615875,-0.6390804422423809,1.4262097953285715,0.6189564560014285,2.222025543047619
0.711561875,-0.6633019657614285,1.3132268595190477,0.7709058494871428,2.3501092309047618
0.721507875,-0.6705089096471428,1.1893363884238095,0.9083186750490475,2.44158204352381
0.731454875,-0.6619658665423809,1.0552916426142858,1.0267965456823809,2.489394548095238
0.741400875,-0.6535039465947619,0.9126065219,1.138101859625238,2.509724607571429
0.751346875,-0.6486793706757142,0.7553724566619048,1.2406447032585715,2.5140745024761904
0.761292875,-0.6371871764614285,0.5936100709476191,1.3303495951204762,2.500564896
0.771239875,-0.6158901552519047,0.4378785869952381,1.403083305525238,2.4695942821428574
0.781185875,-0.5882146710185714,0.2875035006142857,1.4389359259585714,2.4330174758095238
0.791131875,-0.5630188447280953,0.14142199685238094,1.4174366885385714,2.406956111190476
0.801077875,-0.5483792857614285,-0.0006464514333333589,1.3644185363338093,2.3900449923333333
0.811023875,-0.5382065366423809,-0.14873814443333333,1.3148782244719048,2.368039643142857
0.820970875,-0.5214096996614286,-0.29867759929047616,1.275936464324762,2.3384148173333332
0.830916875,-0.501025602837619,-0.42498803805238095,1.2628556303438094,2.284614362666667
0.840862875,-0.48156943128999996,-0.5342668323761904,1.3214293613690475,2.253816106809524
0.8508088751,-0.38128002449,-0.7467488716142857,1.2849302059499998,2.2929502398571433
0.860755875,-0.33828007392333326,-0.9095514491380952,1.201067684905238,2.311855099952381
0.870701875,-0.34239403215523806,-1.0159831784666666,1.1100005310052379,2.2865550634285716
0.880647875,-0.31386857506190474,-1.1275956244190477,0.9060746528623809,2.297208619761905
0.890593875,-0.2768127647142857,-1.183570797109524,0.6544491663385714,2.264534237857143
0.900540875,-0.22291065968571427,-1.2019782914095238,0.39370297010047617,2.183233275857143
0.910486875,-0.1682701766142857,-1.2017463797,0.12542093800523807,2.0732687695238097
0.920432875,-0.12063981945714283,-1.197491903842857,-0.12505907894714288,1.9753538225238094
0.930378875,-0.08999257138571426,-1.1969107880809522,-0.33960564470904764,1.9102763286190476
0.940325875,-0.06737528716476188,-1.1941946172238094,-0.5198389948519048,1.8772461057619048
0.950271875,-0.03630806978857141,-1.1842763890333334,-0.6828771594709524,1.8628449184761902
0.960217875,-0.005145107736190452,-1.169412599795238,-0.830404053137619,1.854596173142857
0.970163875,0.018137805411428596,-1.1545637348428572,-0.94697509109,1.8431667586190474
0.980110875,0.018440555440000023,-1.1576531530333334,-1.0337812954042858,1.8520792399047619
0.990056875,0.016521941282857163,-1.1434951227,-1.0602908170090477,1.8426074211428571
1.000002875,0.07833625489714288,-1.1850284523666665,-1.0941053486661905,1.8909114603809525
1.009948875,0.13727241931142858,-1.1894976741761905,-1.1430284451566668,1.9190954756666667
1.019895875,0.1743613081971429,-1.1593794181190475,-1.1773485660519047,1.9041288729047616
1.029841875,0.20798641442571433,-1.1494672599285716,-1.2460803863619045,1.9289495913333334
1.039787875,0.23118500933047623,-1.1566703195952381,-1.3101308144619048,1.9589932998095239
1.049733875,0.28397379057809524,-1.1751312045428572,-1.4097192549619049,1.9474959249523809
1.059679875,0.25947327828761907,-1.0733471345571428,-1.3909730537380953,1.8516885808
1.069626875,0.256744480192381,-1.0026549238033335,-1.2904402600857143,1.761310864338095
1.079572875,0.3185271248542857,-1.0155420339604764,-1.2497751584190477,1.7654930751476192
1.089518875,0.33238753886380956,-1.0357040270557143,-1.219505598704762,1.7555010878619048
1.099464875,0.33184553329714284,-1.0327092224176189,-1.2036850936095238,1.739875536242857
1.109411875,0.31670057650666666,-0.9868362145985714,-1.1679171464666667,1.695029017147619
1.119357875,0.3607502902161905,-0.9437924377638096,-1.1304422299857142,1.6764913164809523
1.129303875,0.4241535951209524,-0.8797213355828571,-1.0703855894142857,1.659581368766667
1.139249875,0.49742409734000004,-0.8048291394161905,-0.9926712206999999,1.6431501864809523
1.149196875,0.5577429612095238,-0.731916880087619,-0.9133452758142856,1.6141581904809525
1.159142875,0.5871194631428571,-0.6674986760400001,-0.8299476919333332,1.5634901862428572
1.169088875,0.5886430230523809,-0.5837741492638095,-0.7282894763428571,1.5123465299809524
1.179034875,0.5975596910571429,-0.4976275665685715,-0.6031693357714286,1.5088799512666666
1.188981875,0.674346016152381,-0.44186524643047626,-0.5337273850285714,1.4874756663619049
1.198927875,0.721714569447619,-0.37562459055428576,-0.5140694915080952,1.4549936561285715
1.208873875,0.7620691143523809,-0.2648879600733333,-0.4693686137461905,1.4034829125571429
1.218819875,0.8708890310190476,-0.2055784405161905,-0.41638097843666666,1.4322730430333332
1.228766875,1.0198801719285715,-0.1753960878542857,-0.3792134584271428,1.5306357160333333
1.238712875,1.1266017387,-0.09149700776380952,-0.21357500918904768,1.5965833639380953
1.248658875,1.272937913052381,-0.051239122901904764,0.0026532436204761687,1.744486705985714
1.258604875,1.3802546776380953,-0.021689188378095237,0.24526268559666664,1.9280892960333333
1.268550875,1.4767475534523808,-0.06691483979238096,0.47632613200142854,2.137056392804762
1.278497875,1.5375048575285715,-0.11696628183190476,0.6537103010157143,2.3262352611714285
1.288443875,1.5198220943,-0.13320487677476192,0.8256907517776191,2.42360700507619
1.298389875,1.4757441033761904,-0.09895624507,1.025670956634762,2.4351697281238094
1.308335875,1.4051277254428574,-0.053422027712857145,1.2473104455871429,2.475004345457143
1.318282875,1.4034905381238094,-0.08153748709380952,1.3839763589680953,2.513266135552381
1.328228875,1.4278901894095237,-0.1660498287095238,1.4606057350395236,2.5685711546
1.338174875,1.4365198374571428,-0.22515814836666667,1.4919292414442855,2.590347344838095
1.348120875,1.3917549605285713,-0.20741176533333333,1.5528318070633333,2.5942328362666665
1.358067875,1.4246229393380954,-0.20442105374761907,1.6257288775585714,2.655552900885714
1.368013875,1.4975852828190477,-0.19814192376666664,1.7210897254395237,2.766355313314286
1.377959875,1.5885073822523812,-0.20878538766666668,1.8276206764680953,2.894002266338095
1.387905875,1.6737523782714285,-0.22270219249999998,1.891026769277619,2.982892432195238
1.397852875,1.698110430795238,-0.19287525309523815,1.9585681243442858,3.042161534957143
1.407798875,1.7266385730904763,-0.1892428652761905,1.9900153132857143,3.0778403696666667
1.417745958,1.673773687547619,-0.1768998663809524,1.973159906695238,3.0447794322714286
1.427691958,1.5358621814952382,-0.1541674094190476,1.9204402130999998,2.9886747392714286
1.437638958,1.3610666636047621,-0.13305699791904763,1.8175531633619046,2.9435078889380955
1.447584958,1.220770341047619,-0.14605718209047622,1.587341266504762,2.923016362985714
1.457530958,1.0491366771857142,-0.1092676984904762,1.2942849715047617,2.8398806013190474
1.467476958,0.9019754119619049,-0.061846654252380964,0.987777574552381,2.7073497852238098
1.477423958,0.7977822317,0.010651928457142862,0.6579292621714286,2.578444137795238
1.487369958,0.7531841187761905,0.02924294179047619,0.302181515504762,2.5371959047476187
1.497315958,0.7006513916285714,0.1303528416952381,-0.010661256066666644,2.5394704292238095
1.507261958,0.6998599796914287,0.22290642741904762,-0.2917773139238095,2.5850885549380953
1.517207958,0.7506068592866667,0.2572284695428571,-0.5910304324,2.623165717414286
1.527154958,0.7282552161628572,0.33733298510000004,-0.8225690346857142,2.689535956128571
1.537100958,0.6317120647676191,0.4783944036238095,-0.9762691123809524,2.6904769594142857
1.547046958,0.5320721757295239,0.5858180295285714,-1.0773350328809523,2.6972708508904764
1.556992958,0.4886637118819048,0.6158537423761905,-1.2099364909761905,2.707699748890476
1.566939958,0.3914574792414286,0.6756268069380953,-1.3502808320714286,2.67946648117619
1.576885958,0.285762897622381,0.7479128155285715,-1.501951118452381,2.6285022567
1.586831958,0.20476378940809528,0.8199819620333332,-1.6542216633285716,2.5551970422238095
1.596777958,0.14827422530333337,0.889467488457143,-1.7666412060095236,2.4911576422238095
1.606724958,0.12533941987476196,0.9560508607714285,-1.7955802735809523,2.4890035510809523
1.616670958,0.14701669106523813,1.0194951971238095,-1.7457028558142855,2.5638702575095236
1.626616958,0.20018584760809527,1.0847043623666668,-1.6204460017952382,2.671118409904762
1.636562958,0.2668863417557143,1.1455674036095238,-1.4478097440333333,2.7269041978095236
1.646509958,0.3276528813128572,1.1944105185333334,-1.2656938132238096,2.7180051045714286
1.656455958,0.36149722854142863,1.2366777851380952,-1.0837217796047618,2.6556128083333332
1.666401958,0.3724830382176191,1.2599236554857143,-0.9316197459285714,2.575301839047619
1.676347958,0.35982338475095244,1.2711037545666666,-0.8406167443523808,2.5233819446190475
1.686294958,0.30521385886047625,1.3166201240000002,-0.7468157108714285,2.466005797428571
1.696240958,0.258223646522381,1.4028187051428571,-0.6096995061904762,2.357450834904762
1.706186958,0.2821725140319048,1.4044683717619049,-0.46929811303809515,2.2447610673333336
1.716132958,0.304230418102381,1.3952041546666667,-0.3057548882019047,2.1263869837142857
1.726078958,0.33118569070714293,1.3866905808333332,-0.1079142630685714,2.012389210190476
1.736025958,0.392961550202381,1.370730257657143,0.09507294207428574,1.946922525952381
1.745971958,0.47719045150238104,1.3659507018000001,0.2971293818361905,1.9411563265238094
1.755917958,0.5837093252071429,1.352300418642857,0.4772262690742857,1.976071007809524
1.765863958,0.6780220614119048,1.3363200200333334,0.6294067668361905,2.012717406238095
1.775810958,0.7310473138142858,1.3002830870047621,0.7434160839314286,1.999856754809524
1.785756958,0.7270773241247619,1.2436345935190476,0.8029097490123809,1.9317536461857143
1.795702958,0.6677631302580953,1.1827233545142857,0.7862678214790476,1.895242188185714
1.805648958,0.5620101269342858,1.1184580133952382,0.7211654793028572,1.877707718757143
1.815595958,0.4496064135057143,1.0498779979190478,0.6440406213361904,1.8153018348523806
1.825541958,0.3716314260676191,0.9802838246571428,0.6050541995980951,1.7241858985809524
1.835487958,0.3416523616057144,0.9074568233333332,0.6236347575980952,1.7008476957714282
1.845433958,0.3620503455580953,0.8256666111952381,0.7081995570742857,1.7627492263428575
1.855380958,0.4317218029866667,0.7371415482333332,0.8536188358361905,1.9046614775809523
1.865326958,0.5439922033628571,0.6569766392904762,1.0021261405504762,2.064095929295238
1.875272958,0.6836345896438096,0.5951005957761906,1.1079195905885715,2.1879295828666665
1.885218958,0.8295022280009525,0.537577470195238,1.1756283430599999,2.259725546485714
1.895164958,0.9563336606295239,0.4666262973952381,1.2212587888838096,2.293116154961905
1.905111958,1.053605535224762,0.37861940912380954,1.2510674766233332,2.322016356533333
1.915057958,1.1259368771390477,0.28177075113333333,1.2747508996828572,2.3601097163904763
1.925003958,1.1847924578676192,0.1682309654666667,1.312811456589524,2.417543711485714
1.934949958,1.214446055186667,0.029940472823809527,1.3878273631228573,2.5090364263904763
1.944896958,1.2190184037580953,-0.12712160076190476,1.4573231361228571,2.597129148247619
1.954842958,1.1949318291390476,-0.2952627000952381,1.482103441170476,2.6441414298666666
1.964788958,1.134105439167619,-0.4594836450809523,1.4540722791704763,2.6460615629619046
1.974734958,1.0693769898771428,-0.6182347147095237,1.3709849596814287,2.6318456677714286
1.984681958,1.0378292166390477,-0.7607646335857142,1.261367653348095,2.665284362914286
1.994627958,1.0573739839380953,-0.8860646874333333,1.1463976108861904,2.7719339149190474
2.004573958,1.121244415252381,-1.0043115095238095,1.04121642001,2.8805368864904763
2.014519958,1.2173258210857145,-1.114467163452381,0.9355793412004763,2.9763128458714285
2.024466958,1.3048149071000001,-1.2112447638333332,0.8117332254052382,3.085259108061905
2.034412958,1.3544343269190477,-1.300237631904762,0.642317307762381,3.191766664047619
2.044358958,1.3578305777190476,-1.3847446135809522,0.42213700538142856,3.205434021952381
2.054304958,1.321288605352381,-1.4489968680619048,0.14230789181000003,3.1399571772380948
2.064251958,1.2482173887999999,-1.4829130159571429,-0.1936766836185714,3.033693272238095
2.074197958,1.1467643025761904,-1.5092057729190476,-0.5240404419995238,2.9461954265238095
2.084143958,1.032440997,-1.543618586104762,-0.7893498888566667,2.9125481558095236
2.094089958,0.9134096900038096,-1.5756729944666665,-0.9782009767614286,2.920568540761905
2.104036958,0.7957595971561905,-1.5909396011904762,-1.1218676222090476,2.9516798412857144
2.113982958,0.6803889299228572,-1.5802389598714282,-1.2464411038199998,2.987793447857143
2.123928958,0.5732201225228573,-1.541779274809524,-1.36126649727,3.0082423310952384
2.133874958,0.47420868214666667,-1.4720114949285714,-1.4919909155842856,2.9906070174761905
2.143820958,0.3876462666800001,-1.3659242501333333,-1.660677267822381,2.90569781647619
2.153767958,0.3018414433085715,-1.2382787945571427,-1.820381099512857,2.7714512487333334
2.163713958,0.21364414808000007,-1.0977947328857145,-1.9403861236890474,2.6475147318380956
2.173659958,0.13259512448000005,-0.9525663796571429,-2.0130067879295237,2.5665699209333335
2.183605958,0.05444761805619053,-0.8066761494809523,-2.0191773267638093,2.5231310993619047
2.193552958,-0.03513765475333328,-0.6628166572952381,-1.976190880487619,2.4877806024571427
2.203498958,-0.1305213450771428,-0.5172043229619048,-1.8964476393161906,2.438809065504762
2.213444958,-0.21145515940571422,-0.367602642247619,-1.7818413493733334,2.3565921197904762
2.223390958,-0.2600510658914285,-0.21157939615238097,-1.6521862475685711,2.254212213028571
2.233337958,-0.26491433088666666,-0.04398190686666668,-1.5308458585876192,2.183029178314286
2.243283958,-0.24694213045809518,0.1260782904190476,-1.4317746739447619,2.1465589692666667
2.253229958,-0.22006911389142852,0.2891133783238095,-1.354317248592381,2.1277940169809524
2.263175958,-0.19605726523904754,0.4441353861809524,-1.2736339143780953,2.1065984470285715
2.273122958,-0.16242397292476188,0.584367418942857,-1.156979873804762,2.0756899290285715
2.283068958,-0.11540301398666661,0.703727912847619,-0.992107075657143,2.035484772647619
2.293014958,-0.05977643974380948,0.8094056158809524,-0.7937118838952382,2.000221443457143
2.302960958,0.00699416615714291,0.9082143301571429,-0.5856320880857142,1.9777160260761901
2.312906958,0.07352401556190481,0.9991584419190476,-0.3691430494666666,1.9632852967904764
2.322853958,0.1242131695666667,1.0746381579190476,-0.1623561286571428,1.9372674783619046
2.332799958,0.1488418228809524,1.1348259014190476,0.004235388914285749,1.9003106419809523
2.342745958,0.1622243714476191,1.1888476585857144,0.1216617352619048,1.8732815733142858
2.352691958,0.18693831405619052,1.2386929306,0.20711912617142864,1.868924124361905
2.362638958,0.24440486608476195,1.2842903535952381,0.27475470494285714,1.9011037496761904
2.372584958,0.35060169398,1.3286107585904763,0.3416684866904762,1.965128778142857
2.382530958,0.5020936820752381,1.3684047643619048,0.40187612464523814,2.0364192056666663
2.392476958,0.6763055416942857,1.3965755495190477,0.44638446194000003,2.101484370238095
2.402423958,0.856326108884762,1.4035099157142856,0.5027544609066668,2.1467987395238093
2.412369958,1.0362304835514284,1.3770481046047618,0.6011633230685715,2.1877138504761904
2.42231575,1.1990270294085714,1.3215737041666666,0.7461474854114285,2.2626004568571427
