Time (s),Linear Acceleration x (m/s^2),Linear Acceleration y (m/s^2),Linear Acceleration z (m/s^2),Absolute acceleration (m/s^2)
0.2096548334,1.1832464644714287,-1.7056489413333333,-5.094199247833333,5.6985266665714285
0.2196008334,1.1667196574714285,-1.724329250047619,-5.308336369285715,5.832048171666666
0.2295468334,1.1272318926619047,-1.7551812620476193,-5.464046998190476,5.935228751238095
0.2394928334,1.0898247133761905,-1.7917865583809525,-5.558496794190476,6.006969500190476
0.2494388333,1.0613526225666665,-1.843840797095238,-5.585574693,6.044787812904762
0.2593848333,1.0206597605476189,-1.9254509428095237,-5.560012503857143,6.069420077666666
0.2693308333,0.9804024708619048,-2.0369462495238095,-5.511977989238095,6.106308835380952
0.2792768333,0.9399800703999999,-2.173803895857143,-5.449991851047619,6.148793926380953
0.2892228334,0.8269152178761904,-2.372877058333333,-5.374897925952381,6.230424523666666
0.2991688334,0.565903230852381,-2.711751773190476,-5.30305438452381,6.467841453857143
0.3091148334,0.26252411517619045,-3.0584314629047618,-5.255889044571428,6.735698363857143
0.3190608334,0.09031386364285712,-3.2105377845238094,-5.315540417428572,6.882222615619048
0.3290068334,-0.11211519343333337,-3.435433838476191,-5.532071054666666,7.199390831761905
0.3389528334,-0.4933434631,-3.765143432619048,-5.874094912952381,7.724768003904762
0.3488988333,-0.9127468550714285,-4.112099250142857,-6.295972803285714,8.338709567809524
0.3588448333,-1.2631822670714286,-4.544287702904763,-6.827094557761905,9.059764642190476
0.3687908333,-1.6834958181666668,-5.013088106285714,-7.2808153542380945,9.73500069195238
0.3787368333,-2.1079160707380953,-5.568535920428571,-7.567914868047619,10.32273380290476
0.3886828333,-2.4031391767857144,-6.191279979857143,-7.723297690904762,10.856125301333334
0.3986288334,-2.5444237222619046,-6.826565091999999,-7.740423823571429,11.330361305095238
0.4085748334,-2.4796664910714283,-7.471149003238095,-7.620246724238096,11.786380159142858
0.4185218334,-2.1996621559285714,-8.044767597095237,-7.437002670619047,12.261309408047618
0.4284678334,-1.842070336690476,-8.570580692047619,-7.244053631180952,12.760352732190475
0.4384138334,-1.5623554387380953,-9.131503393380953,-7.0108638030428585,13.263621415238095
0.4483598333,-1.351632638785714,-9.687056109619046,-6.788612611809524,13.756273544523808
0.4583058333,-1.2258194291190476,-10.277082436190476,-6.647939295264287,14.292465277904764
0.4682518333,-1.098421282957143,-10.912891751047619,-6.559025503821428,14.904632987476191
0.4781978333,-0.8390119620809522,-11.546149591428572,-6.461896401378572,15.552746968666668
0.4881438334,-0.3104332733333332,-12.160565099761905,-6.3187179984119055,16.292986367809526
0.4980898334,0.5684565741428571,-12.657997425095237,-6.115566235935715,17.10067988157143
0.5080358334,1.7402719198095238,-12.987781835952381,-5.822066137269047,17.810106457761904
0.5179818334,3.101002756666667,-13.275779398571428,-5.380382975935714,18.561456000142854
0.5279278334,4.403468664809524,-13.685726351666666,-4.7585174744595236,19.439699278095237
0.5378738334,5.662343065238095,-13.981739054428571,-3.967449952221428,20.045826065714284
0.5478198333,6.94723259152381,-14.161155019285713,-3.052736817697619,20.293945556190476
0.5577658333,8.173749252380953,-14.315618576190476,-2.078232506078572,20.34240945190476
0.5677118333,9.300355291333334,-14.360209888095236,-1.0428452030785715,20.242580467619046
0.5776578333,10.398257487666667,-14.258057471428568,-0.03304715355476194,20.06757214333333
0.5876038334,11.495497472904763,-14.041451906190476,0.8274885626357144,19.958345246666667
0.5975498334,12.504992580952381,-13.727653476952382,1.4990128795880953,19.979817437619047
0.6074958334,13.37377307995238,-13.291841755285716,2.0376399667785714,20.058743442857143
0.6174418334,14.026611672714287,-12.764745641857143,2.43907476587381,20.150247605238096
0.6273878334,14.446165907380951,-12.23651319157143,2.75309202035,20.233298036666667
0.6373338334,14.782282713285714,-11.661677291166667,3.0397115054357142,20.30277966142857
0.6472798333,15.200213175857144,-10.955368194738096,3.2828015606785717,20.379141153809524
0.6572258333,15.682791123285714,-10.185857379309525,3.5069204639690477,20.478581534285713
0.6671718333,16.21637948357143,-9.279424765214285,3.801099925566667,20.53938068904762
0.6771178333,16.74905576209524,-8.235124078261904,4.130403110409524,20.521170383809523
0.6870638333,17.12504448095238,-7.113246682928572,4.446924197442858,20.42614386047619
0.6970108334,17.194025253333333,-5.953737804785715,4.71296788752381,20.17839820333333
0.7069565834,16.938875427142857,-4.834358144785715,4.907134038809524,19.750304522857142
0.7169025834,16.503119254285714,-3.7362574491666667,5.010156911,19.190930344761902
0.7268485834,15.880360994190474,-2.6599101220714285,4.9854653861904765,18.480502251428568
0.7367945834,15.143563345952382,-1.6564385927380951,4.881287883809524,17.69478312142857
0.7467405833,14.447377032761906,-0.7089932464523812,4.755787743857143,16.95241640952381
0.7566865833,13.86437833547619,0.21530778997619038,4.632005098190477,16.312209474761904
0.7666325833,13.369138437666669,1.1158897355,4.518017979666667,15.75999975852381
0.7765785833,12.888038360142858,1.9867675750238096,4.441232079190477,15.248473467857142
0.7865245834,12.44943364647619,2.761600748547619,4.345115833666666,14.756501157333336
0.7964705834,12.00544921604762,3.4477223330238096,4.192417544095238,14.265935475619047
0.8064165834,11.521187966761905,4.090966257309524,4.006599546109524,13.78009405695238
0.8163625834,11.022277298285715,4.653811411880953,3.7992385819000005,13.304838794857144
0.8263085834,10.519165266047619,5.130316580119048,3.5948924769,12.846996205619048
0.8362545834,10.039867411714287,5.515273981166667,3.3914951870428576,12.417084525619048
0.8462005833,9.592483465857143,5.784520386190476,3.1764338087761907,12.007456780571427
0.8561465833,9.193086003904764,5.955817130380953,2.9445867032190476,11.626916581380952
0.8660925833,8.834868281761905,6.057211775761905,2.719845405585714,11.273773035761904
0.8760385833,8.543344096666667,6.064900029047619,2.5004658306809526,10.953403860190477
0.8859845834,8.383085559047618,5.935787381761905,2.251772889871429,10.70404131495238
0.8959305834,8.316599542857144,5.700255270428571,1.9938635746857143,10.516361395428572
0.9058765834,8.33442168952381,5.3879435374047615,1.769011068590476,10.399256762095238
0.9158225834,8.424254245714286,5.007968493090476,1.601135126590476,10.35487998304762
0.9257685834,8.56336719095238,4.550943240233333,1.5171839784952381,10.374037814
0.9357145834,8.801208367714285,3.962780699947619,1.4629776860190478,10.513710487333334
0.9456605834,9.030182242142857,3.3278816434238094,1.4549897211619047,10.669065969238094
0.9556065833,9.20153211247619,2.6784308719000003,1.532284301542857,10.81445772447619
0.9655535833,9.362477558809525,1.9624089097571429,1.6622670562571429,11.008530858285715
0.9754995834,9.502997177142857,1.2075376291380953,1.8319342579714286,11.224003411666667
0.9854455834,9.650578199333333,0.4134866901857142,2.0031662233523813,11.470604277571429
0.9953915834,9.780337966333335,-0.37582006857619044,2.190734035447619,11.771302837142859
1.005337583,9.942391097714285,-1.1948504521,2.4020785754,12.148273803142857
1.015283583,10.158163740809524,-2.0830837184809523,2.6046938976238097,12.577421844190477
1.025229583,10.363856758809524,-3.017357125671429,2.766701031071429,13.027122288666668
1.035175583,10.524460254238095,-3.9995735801952375,2.873508339595238,13.484335137904761
1.045121583,10.587321247333334,-4.999679006290476,2.9256452885476194,13.91128231790476
1.055067583,10.545071466666666,-5.969213991719047,2.9152648101285714,14.288198038666668
1.065013583,10.419262134285715,-6.884971912338095,2.8524504207666666,14.584296419285714
1.074959583,10.301412143238096,-7.745935491242857,2.739451600019047,14.83384609347619
1.084905583,10.213713013380952,-8.57686740862381,2.5450235561142853,15.08083205238095
1.094851583,10.040700027809525,-9.327106886861905,2.300455408257143,15.283971012380954
1.104797583,9.810470617238096,-10.053710193242855,2.0216846755380953,15.485409193333334
1.114743583,9.449957695904763,-10.756763058838096,1.7005925407761904,15.64116494714286
1.124689583,9.089453517761905,-11.532335598809524,1.343044144061905,15.891230996666666
1.134635583,8.517509399714285,-12.259009767761903,0.9623386154428573,16.09066901142857
1.144581583,7.594813201047619,-12.792701317904763,0.5973490659666667,16.17786831095238
1.154527583,6.670945971904762,-13.27053909452381,0.20903500115714296,16.314283617619047
1.164473583,5.838848676428572,-13.650290106904762,-0.2642268836523809,16.45020482047619
1.174419583,5.092589620380953,-13.837027593571428,-0.7915792999857142,16.45964610952381
1.184365583,4.462906864904762,-13.88851271704762,-1.3559472644142856,16.372428617619047
1.194311583,3.918483530333334,-13.849168612761906,-1.9183829746523808,16.209750829047618
1.204258583,3.3680634027142857,-13.766505188571427,-2.475323304604762,16.01918081285714
1.214204583,2.716732807190476,-13.63783052547619,-3.0249575107,15.806712033809523
1.224150583,1.9181070626666665,-13.452062813761906,-3.5677359400333337,15.590510232857143
1.234096583,1.004071564952381,-13.23314704152381,-4.100313762414286,15.441182938095237
1.244042583,0.09035426704761909,-12.959311936809524,-4.644893830223809,15.335510894285713
1.253988583,-0.7594747098571427,-12.620209960333332,-5.1791242985095245,15.26146318857143
1.263934583,-1.5745440780952382,-12.282209877714287,-5.652697053300001,15.269171274285714
1.273880583,-2.335120348047619,-11.885979462380952,-6.051531484238095,15.273860578095237
1.283826583,-3.1403041072380953,-11.446404111047618,-6.3694624332857135,15.26300257857143
1.293772583,-4.003778452761905,-11.045059888238095,-6.592278381999999,15.222667647142858
1.303718583,-4.867157043380952,-10.692598193333332,-6.414192052861905,15.063498748095236
1.313664583,-5.682471354190476,-10.303231713238095,-6.114532761766666,14.817401428095238
1.323610583,-6.317892956904762,-9.886890245428571,-5.797334343576191,14.497160595190476
1.333556583,-6.912424228809523,-9.374381543095238,-5.523474374050476,14.016427769571429
1.343502583,-7.307341582142858,-8.883304918619048,-5.41394533281238,13.624801064809525
1.353448583,-7.397711580857144,-8.394906235047618,-5.43757916590762,13.285844246238096
1.363394583,-7.446628885809524,-7.8964527074761905,-5.499166774621905,12.95963227338095
1.373340583,-7.500412911904762,-7.443851040380952,-5.513668537669524,12.665919826714283
1.383286583,-7.627057922809524,-7.061298348380952,-5.489513884717143,12.471465227190476
1.393232583,-7.8898566031428565,-6.692447687714287,-5.413470316145715,12.38040392147619
1.403178583,-8.241703031857142,-6.324987912428572,-5.3078151945266665,12.351777742904764
1.413124583,-8.582664757190477,-5.955500294857143,-5.248695222193334,12.332089249095239
1.423070583,-8.75762762204762,-5.596031825666667,-5.203860248288571,12.212301913809524
1.433016583,-8.64168076042857,-5.244043894333334,-5.112448359240952,11.90155953404762
1.442962583,-8.252604803423809,-4.913385714714286,-4.9450173207171435,11.422917380380952
1.452909583,-7.766073581561905,-4.634294102095238,-4.694312353002856,10.896270775857143
1.462855583,-7.2425283708476185,-4.382212699809524,-4.378403134431428,10.335504164095239
1.472801583,-6.7336803314904765,-4.1195514569047615,-4.019828370383809,9.697880149571429
1.482747583,-6.24336752012381,-3.9582643941428572,-3.689141170479048,9.127555910190475
1.492693583,-5.7152433268890475,-3.879626722238095,-3.437784711574286,8.623177701476191
1.502639583,-5.1608516869938095,-3.715156992142857,-3.2752019058123807,8.141295791809524
1.512585583,-4.618364170484286,-3.44918881467619,-3.491969821855238,7.787107053285713
1.522531583,-4.112990073412857,-3.187701497742857,-3.812454486617143,7.501276194095238
1.532477583,-3.7044661100842857,-2.9282368162380954,-4.102786229712381,7.275462231285714
1.542423583,-3.394318932760476,-2.6432394322761903,-4.296743551857143,7.042553947285714
1.552369583,-3.129028837365238,-2.3885918262761905,-4.347587848523809,6.774593722190477
1.562315583,-2.9374162208890473,-2.2186952675142857,-4.276341474857142,6.531420394238094
1.572261583,-2.7171327012699997,-2.035842559657143,-4.185388397380952,6.2633516840952375
1.582207583,-2.417266683212857,-1.9377335900380952,-4.118620990904762,6.022763645047619
1.592153583,-2.0425231427495243,-1.9389670741333336,-4.051527059238095,5.8056679917142855
1.602099583,-1.5904579715685716,-2.0512723455142856,-3.9985212975238094,5.587703642904762
1.612045583,-1.022116796235238,-2.2290047022761903,-3.988154574,5.401851626333333
1.621991583,-0.3993025700923809,-2.389019118561905,-3.886945786523809,5.19866117352381
1.631937583,0.14589248557428572,-2.5134453059904764,-3.7073733666666664,5.047879374619048
1.641883583,0.5137719795742858,-2.6404698290380955,-3.5128555819285716,5.03361640852381
1.651829583,0.7470309440933333,-2.7671520393238094,-3.371975475785714,5.1356138974761905
1.661775583,0.9670863666123809,-2.8846398928476193,-3.2660958837380956,5.286954788285715
1.671721583,1.1406228728028571,-3.0421360108,-3.1480986542333333,5.465515305047619
1.681667583,1.2997554036838095,-3.258570920895238,-3.041693439252381,5.68412585747619
1.691614583,1.4131668011742857,-3.540534685847619,-2.922592923652381,5.942665041952381
1.701560583,1.5326058983680952,-3.9097645524190474,-2.7764425689095242,6.262800392095238
1.7115075,1.8969915696633333,-4.520057606752381,-2.64198733462381,6.8414438927142855
1.7214535,2.534826791725238,-5.27921408912381,-2.427832755047619,7.62924824647619
1.7313995,3.089636173653809,-5.882580476152381,-2.0359525151428572,8.243518906619048
1.7413455,3.4645369763728575,-6.3718301521333345,-1.5794943308571427,8.693402566619048
1.7512915,3.8166818914776193,-6.861516086047619,-1.203831301809524,9.146418237666667
1.7612375,4.247603113177619,-7.2643511817619055,-0.8891716332380952,9.566692430380952
1.7711835,4.862079237891905,-7.606665730095239,-0.6066725278571429,9.98805827309524
1.7811295,5.591960103320476,-7.887086971714286,-0.30830300719047615,10.451351255142857
1.7910755,6.245524725406191,-7.909920334904761,0.06505006538095236,10.841934765142858
1.8010215,6.714246191561905,-7.804878015380952,0.4143957652380952,11.069961243714285
1.8109675,7.0045547685714284,-7.644383612285715,0.6728844629047619,11.112229704666666
1.8209135,7.121596730142858,-7.400823385223809,0.8935922119523809,11.025043005619048
1.8308595,7.19426704,-7.091139209938096,1.038567728795238,10.975507449190477
1.8408055,7.253504151571429,-6.720296360985715,1.0957161313714285,10.984124171476191
1.8507515,7.252245162476191,-6.258408396557142,1.0813648018238093,11.02147150147619
1.8606975,7.171890330380951,-5.720407615795238,1.0461290139190478,11.030568233380952
1.8706435,7.0562600816190475,-5.130128828938096,0.9622137635380952,11.01838527695238
1.8805895,6.972003736666667,-4.484107922747619,0.8123261678904761,11.037593825619048
1.8905355,6.916880976619048,-3.7480508659857144,0.632542726195238,11.091806393761905
1.9004815,6.829221357271429,-2.9160688720809524,0.43314649807142847,11.125634795619046
1.9104285,6.723048812761904,-2.035547554080953,0.22825843970952378,11.056498235333333
1.9203745,6.516641599000001,-1.042658900461905,0.06394690466190471,10.710125121285714
1.9303205,6.275567914238095,-0.01763431150952381,-0.13431474781904765,10.232859867952381
1.9402665,6.1891761380476185,0.8990476083952381,-0.3926235740095238,9.964651813190475
1.9502125,6.168959195,1.7906564725857141,-0.6314838509,9.828925751761906
1.9601585,6.076407878571429,2.7190743945857143,-0.7912089970809524,9.678765224619047
1.9701045,5.890216132190476,3.643628197919048,-0.9226278697428573,9.516174240809523
1.9800505,5.624758277190476,4.510365651871429,-1.0677021349333333,9.317496408333332
1.9899965,5.364736077857143,5.259796126157143,-1.2461351691238096,9.13156864547619
1.9999425,5.223332471714286,5.802896208014286,-1.4847814379333333,9.08572613595238
2.0098885,5.220250933380952,6.305493476300001,-1.6557093202428572,9.206582085476189
2.0198345,5.257987331761904,6.85909515725238,-1.694607574342857,9.48239617857143
2.0297805,5.253881389047619,7.370323876333334,-1.725171889404762,9.815696511809525
2.0397265,5.142781980619048,7.8349830869999995,-1.7582518158571427,10.12625595247619
2.0496725,5.034287172619048,8.227919612714285,-1.8024551373380955,10.403117283428571
2.0596185,5.050617053761905,8.538965590666667,-1.8368727535761904,10.687919838333332
2.0695645,5.20493440252381,8.809886332142858,-1.8254560650523812,10.992087951619048
2.0795105,5.449730369,9.04172974147619,-1.7676988002904763,11.294186931761905
2.0894565,5.780154938428572,9.211598289238095,-1.7014434985285714,11.593806384761905
2.0994025,6.201763689666667,9.305948125619048,-1.632406495338095,11.870931726333332
2.1093485,6.692847247300001,9.354976416333333,-1.5372314636238096,12.095608256047619
2.1192945,7.160928331857143,9.392902264523808,-1.4260088877666668,12.305756466809525
2.1292405,7.585295548714286,9.406617716285714,-1.3245545033380952,12.577881833714287
2.1391865,7.885773435857144,9.401864681714287,-1.215915310909524,12.813097308476191
2.1491335,8.106469518238097,9.318737350571428,-1.1942226281,12.978592647523808
2.1590795,8.357944453095238,9.10265555657143,-1.244579893447619,13.09645417752381
2.1690255,8.614830206190476,8.818393418190476,-1.324402336552381,13.14271310704762
2.1789715,8.887248029571428,8.489916973952381,-1.3917451020809524,13.156334664666666
2.1889175,9.117156845809523,8.170444559666667,-1.4191304043190478,13.154344326190474
2.1988635,9.278932123238095,7.844008083714285,-1.4148214449380954,13.149571195714286
2.2088095,9.455122485571428,7.467761906283334,-1.4226764065095239,13.195409510476193
2.2187555,9.762107488523808,6.989535707521428,-1.475257702104762,13.352563415238096
2.2287015,10.314957885809523,6.339072323711905,-1.5614083221714286,13.66481042047619
2.2386475,10.948858405,5.580139984854762,-1.5633456021714285,13.990845259047619
2.2485935,11.504912687047618,4.69574992595,-1.5367118481204762,14.183731812380952
2.2585395,11.868214117238095,3.723781523902381,-1.551479763882381,14.263884846190479
2.2684855,12.063751663333333,2.7131789532833337,-1.585474528977619,14.26895321857143
2.2784315,12.247841168666666,1.6834074554261904,-1.6304584397871429,14.300515514761903
2.2883775,12.383328478428572,0.6879936399976192,-1.6254512184061904,14.32158642142857
2.2983235,12.397262114714286,-0.2655303603833332,-1.5823997671109522,14.281573406190475
2.3082695,12.363253260523809,-1.2266695518119046,-1.56043394273,14.250151044285715
2.3182155,12.364789797666665,-2.186713476240476,-1.532904440491905,14.26349023190476
2.3281615,12.364399704809525,-3.1070926181452383,-1.466312293877619,14.304190150952381
2.3381075,12.184243872095239,-3.9339674035261902,-1.3241335281204762,14.252007560476189
2.3480535,11.824034143238094,-4.688155172669047,-1.170484557882381,14.100236894285715
2.3579995,11.494806025714286,-5.446613358097618,-1.0215509633109523,14.010134301904762
2.3679465,11.301512919238096,-6.193800673526191,-0.8945717701204763,14.07336034047619
2.3778925,11.245269999761906,-6.9211238000023805,-0.7596298665014286,14.28674058095238
2.3878385,11.208220175857143,-7.634247826240477,-0.5781722834061905,14.554453851428573
2.3977845,11.08582514404762,-8.311527655145238,-0.3730098653109524,14.763125116666666
2.4077305,10.815480604047618,-8.927137290145238,-0.17331271440619048,14.851692991428571
2.4176765,10.370077277190477,-9.499228911428572,-0.009352979834761915,14.808731268095235
2.4276225,9.768618725523808,-10.016354074095238,0.10770194305095236,14.635637835238093
2.4375685,9.006781684952381,-10.436003715523809,0.18387906483190475,14.318232325238094
2.4475145,8.236146450190477,-10.763864614761905,0.1903224876509524,14.006858981904761
2.4574605,7.568632543376191,-10.978466868238096,0.18434233833523808,13.787518649047618
2.4674065,7.045955783647618,-11.08675641095238,0.24904295591619047,13.648014450476188
