Time (s),Linear Acceleration x (m/s^2),Linear Acceleration y (m/s^2),Linear Acceleration z (m/s^2),Absolute acceleration (m/s^2)
0.2009400417,0.943466204847619,-2.8933221726571428,-0.5468771361619048,7.014412192761904
0.2108860417,0.8285044041952381,-2.7339752438761904,-0.2455473372714286,7.198905806571428
0.2208320417,0.7436708555142857,-2.6071683486333335,0.08151672593333326,7.359427009476191
0.2307780417,0.6114545618714285,-3.483079833433334,0.6244241837904762,6.656568311619047
0.2407240417,0.5204201523952381,-3.5881134795952385,1.0442721712190475,6.5855603959047615
0.2506700417,0.5933785351095238,-3.3053063512333334,1.382319226695238,6.42993293847619
0.2606160417,0.8230070191095238,-2.9949217212619046,1.6060644093619048,6.260435983714286
0.2705620417,0.9507234347761905,-2.6104469939333335,1.6995879750885716,6.027655363333333
0.2805080417,0.8929390500619048,-2.2232627225523807,1.7038579948028572,5.721867142380952
0.2904550417,0.6820904026904762,-1.8547304008380952,1.7141539670314287,5.307904677571429
0.3004010417,0.44749766045238093,-1.4654369830761904,1.8473752299980954,4.905419871190476
0.3103470417,0.25605088207142856,-1.059426542842857,2.0414335976219045,4.541210833666666
0.3202930417,0.09672511466190475,-0.6946658701380952,2.2228685157933334,4.25454785295238
0.3302390417,-0.06839774940000001,-0.4036708300142858,2.380118159698095,4.08623141652381
0.3401850417,-0.2606309504476191,-0.2068300787761905,2.5096289466742854,4.031785548666667
0.3501310417,-0.4442467756380952,-0.039969728490476183,2.585428226950476,4.054759597761905
0.3600770417,-0.6020650473142857,0.14150916212857143,2.5691793889314285,4.149800263857143
0.3700230417,-0.7366084770904762,0.3072763615047619,2.43730139846,4.225728131857143
0.3799690417,-0.8350707716809525,0.4482388924571429,2.194177937512381,4.193759835380952
0.3899150417,-0.8959008875380954,0.5648723842380953,1.8713093559647618,4.06548908747619
0.3998610417,-0.9004327023952382,0.6887928988904761,1.5306215865700001,3.9001105052380955
0.4098070417,-0.8709285989190476,0.8493675202142857,1.1973221082995238,3.746302730619047
0.4197530417,-0.8520569610142859,1.0326400302904761,0.87214959149,3.6250925369523808
0.4296990417,-0.8681454634904762,1.220255712952381,0.561334056537619,3.5503717092857143
0.4396450417,-0.9060417414666666,1.4049740724190476,0.2691442632042857,3.516550644571429
0.4495910417,-0.9745003854428572,1.6106315338666666,-0.0036326906052381023,3.5105794492857143
0.4595370417,-1.0843267436571427,1.8024701591714287,-0.2624272046528572,3.502511405904762
0.4694830417,-1.2183989992238096,1.9716078885809525,-0.4653452177480953,3.5036997325714285
0.4794290417,-1.3369329752714285,2.114388820109524,-0.5915878253319048,3.5194892715238097
0.4893750417,-1.4136622273666666,2.2477531727761906,-0.660272227522381,3.5523589917142857
0.4993210417,-1.4108327318666667,2.3804789816333334,-0.7238507992366666,3.6325487720476186
0.5092670417,-1.3442789715333334,2.4891093336333334,-0.8186827803938095,3.645094110714286
0.5192130417,-1.264722618504762,2.546833965404762,-0.9025657945414286,3.589725014571428
0.5291590417,-1.174980387990476,2.5375218011333334,-0.9725767002366665,3.5288231515238095
0.5391050417,-1.042784253337143,2.4611556332952382,-1.046108924522381,3.4707091726666666
0.5490510417,-0.8493664064323809,2.3409404713428574,-1.1175240251652379,3.4408462737142855
0.5589970417,-0.5784833378609523,2.1983175538666666,-1.170898286727143,3.4564720083333333
0.5689440417,-0.24800550309904762,2.043425646533333,-1.1877349195795237,3.4991339800000003
0.5788900417,0.12355074794857143,1.8821527006380951,-1.163569289174762,3.559806224142857
0.5888360417,0.5275185051866667,1.7206756590714287,-1.1298955710080953,3.6426046390952385
0.5987820417,0.9385759278533333,1.559115252890476,-1.105962750279524,3.736905297761905
0.6087280417,1.3281419372342858,1.3932264871109523,-1.0982831286180952,3.8176772776666663
0.6186740417,1.6769802797580953,1.2268097177204762,-1.089337417704762,3.862214694904762
0.6286200417,1.9776091923771426,1.0660043820061904,-1.0572030417047618,3.8640211401904763
0.6385660417,2.217441596710476,0.9194448961966667,-1.004677315552381,3.823394847095238
0.6485120417,2.3958475249009523,0.806431248577619,-0.942460577747619,3.769828981
0.6584580417,2.5223045338771426,0.728164930577619,-0.8456551091095238,3.725003665380952
0.6684040417,2.6304794713295236,0.651307958625238,-0.6972211033952381,3.689614252333333
0.6783500417,2.7535678436580953,0.5343388088252381,-0.5031589420619047,3.676556522285714
0.6882960417,2.890624963610476,0.3927969579823809,-0.2573451980619047,3.711868973714285
0.6982420417,3.037497470324762,0.2574123923109524,0.027936499795238108,3.7962914210952383
0.7081880417,3.196551982624762,0.14443605551095237,0.31099164055714285,3.922544342619048
0.7181340417,3.344071692624762,0.057113709134761895,0.5564679445095239,4.065418226190476
0.7280800417,3.4450902785485713,-0.01987902963190475,0.7326619545571428,4.160684972952382
0.7380260417,3.4313520783199998,-0.10042333935095238,0.8339592576999999,4.219796868666667
0.7479720417,3.2697077785238102,-0.17447194935095237,0.9265796061047619,4.349703715523809
0.7579180417,2.970950225523809,-0.24789565901761906,1.0733417188190475,4.518746013523809
0.7678640417,2.5757978698095236,-0.3272443523509524,1.2700055430571429,4.658651745380952
0.7778100417,2.1399306275714287,-0.41491483082714287,1.4602762653380952,4.747683328380952
0.7877560417,1.692746767714286,-0.5210548536938095,1.5773210321666666,4.7748130424761905
0.7977020417,1.241847030142857,-0.6682538021271428,1.6468454843285714,4.762571292571429
0.8076480417,0.8301387010000001,-0.8895404533747618,1.7002415406714289,4.751116321809524
0.8175940417,0.4862851098095238,-1.140553207404762,1.7187470176,4.735674777333334
0.8275400417,0.20806509429999998,-1.3505738611571427,1.7433476042809526,4.68285542252381
0.8374870417,0.0008431685390476075,-1.483882470395238,1.7876693039952383,4.589053390142857
0.8474330417,-0.14560616684190478,-1.5625673098238093,1.8204333416047622,4.481166475047619
0.8573790417,-0.2606241007895238,-1.626797331,1.8505386537190476,4.3743387517
0.8673250417,-0.366503839037619,-1.683631765952381,1.8644992604619048,4.280974993461904
0.8772710417,-0.49677367812333334,-1.6867694654285716,1.8600906756333333,4.219625959938095
0.8872170417,-0.6709626222042857,-1.593712114247619,1.8240945548000003,4.169711309604763
0.8971630417,-0.8837079392709525,-1.4299582504047619,1.7265187259190478,4.097899041604762
0.9071090417,-1.116513772385238,-1.2376233913523809,1.5692633461857142,4.0115463187
0.9170550417,-1.3652929457185716,-1.042019270504762,1.3714857874619049,3.9276818334619046
0.9270010417,-1.5949445401471427,-0.8474410854142859,1.1570143445142858,3.8803641522714285
0.9369470417,-1.759366434480476,-0.6395320561285713,0.9727442158952381,3.9088439427476183
0.9468930417,-1.8143730020042856,-0.4172248986999999,0.8472446745619048,3.959166156985714
0.9568390417,-1.7682189519566667,-0.20759069017619045,0.7316859706333334,3.9159453043190475
0.9667850417,-1.6524372881471427,-0.016974411366666657,0.5684128105857142,3.7892772929380953
0.9767310417,-1.528726048099524,0.15173235040476193,0.35168175291904763,3.635242735604762
0.9866770417,-1.429653248480476,0.31134722086190475,0.11527162644285716,3.494198233461905
0.9966230417,-1.365251653337619,0.48078301903809517,-0.08400664803333333,3.3914690295095236
1.006569042,-1.337938557242381,0.6832797541476191,-0.2514291941761905,3.3075014685571427
1.016515042,-1.3696888825280953,0.9489925197,-0.40910652012857146,3.2152397394142853
1.026461042,-1.458964867194762,1.229592324152381,-0.5369279908000001,3.1367719757000003
1.036407042,-1.581089618399524,1.4471358385,-0.6804997651714286,3.122382252842857
1.046353042,-1.7140869329719048,1.5712521513857145,-0.8549969410285715,3.170133333271429
1.056299042,-1.8266926398290475,1.6338443674380954,-1.0131609641714288,3.2488574626523805
1.066245042,-1.9074159856909525,1.6641184935666669,-1.151872010852381,3.3290001654761907
1.076192042,-1.9473446166238095,1.674204021709524,-1.274330109042857,3.3778135409047616
1.086138042,-1.948113386261905,1.6516722774238095,-1.3965041021666669,3.380825755238096
1.096084042,-1.9182689191333335,1.5890112034714285,-1.5075626288095239,3.346052405619048
1.106030042,-1.858294390157143,1.4939341961380952,-1.5962091467857145,3.2896130174761904
1.115976042,-1.7731911178047621,1.372393526042857,-1.6718262584333334,3.2169444495238095
1.125922042,-1.6583423633285714,1.2402321405238095,-1.7228819528047619,3.1333856637142863
1.135868042,-1.5231663483761904,1.1059098746999998,-1.741628154047619,3.0346931121904763
1.145814042,-1.3679140854714287,0.9836028296,-1.7206249484666667,2.931652652619048
1.155760042,-1.1912153214714285,0.8784378438761906,-1.679351207319048,2.83957509
1.165706042,-1.015536144852381,0.7465632782190477,-1.635517683952381,2.7638226085238093
1.175652042,-0.8377862742333335,0.5537817197428572,-1.5971625109190473,2.7655701725714286
1.185598125,-0.622831377947619,0.31405175306666666,-1.5898279028238096,2.845228664619048
1.195544125,-0.3470664969000001,0.0645212125142857,-1.6241161703,2.973211198952381
1.205490125,-0.002083251471428616,-0.1481132859,-1.6824133697761905,3.1159600075238094
1.215436125,0.40456525919523806,-0.2894568047238095,-1.750365227204762,3.2575016663333334
1.225382125,0.8564440991,-0.35425183397142856,-1.8107402069190475,3.406881441619048
1.235328125,1.3353735508142859,-0.3631300234666667,-1.8465533586333331,3.573072155285714
1.245274125,1.774388711195238,-0.35485100651428575,-1.8540183805380952,3.7011959966666668
1.255220125,2.052069112195238,-0.3899705531666667,-1.8434171558238097,3.709714142666666
1.265166125,2.157125729519047,-0.5019522229333333,-1.818949607204762,3.6755982664285716
1.275112125,2.1776336968095236,-0.684583655457143,-1.7680019818904762,3.6976720412857143
1.285058125,2.1707556170380955,-0.9232326947428572,-1.7009312284904763,3.7712358097142853
1.295004125,2.161645153861905,-1.1940810419809524,-1.6280091402804762,3.8763982415714286
1.304950125,2.151491213285714,-1.5018057178857143,-1.5499127456709523,4.02468455095238
1.314897125,2.1304625932,-1.8269412301714287,-1.4454774646138095,4.19432977252381
1.324843125,2.0735846104290476,-2.0924675808857143,-1.264025331994762,4.332271452523809
1.334789125,1.9728651513957143,-2.2371624731285715,-1.0056337468519048,4.449705037333334
1.344735125,1.8440348968242857,-2.2774130628904765,-0.7178556498519048,4.600720070857143
1.354681125,1.6846947897766666,-2.2883581874333334,-0.4236504396233333,4.791229344047619
1.364627125,1.5262224095385715,-2.300697900749524,-0.11337080896142859,4.998045912238095
1.374573125,1.4246951158861902,-2.2697575818733333,0.21649541052904764,5.2103847350952375
1.384519125,1.3925033536290474,-2.1546476795876193,0.5650031417338096,5.363363351952382
1.394465125,1.4000774748195237,-1.9538326872414284,0.9370150857814286,5.438228183904762
1.404411125,1.4086681762004762,-1.7182899116604762,1.3116686904957144,5.4433782030952385
1.414357125,1.3781767285814286,-1.5099002969033335,1.6407957627338097,5.3842124325238085
1.424303125,1.2797489047242856,-1.3677395322366666,1.908289228162381,5.26057762252381
1.434249125,1.0809455494385714,-1.3108667005699999,2.1378066985909525,5.0541148067619055
1.444195125,0.7846955330766666,-1.3351242645223809,2.318936284162381,4.75900412547619
1.454141125,0.46068477449095235,-1.4046928770938094,2.4567939749480954,4.502441774333333
1.464087125,0.2185524374909524,-1.4493919728509521,2.5551037129004763,4.4338973862857145
1.474033125,0.06297303683380953,-1.4255280935652381,2.612642850443333,4.480804490333334
1.483979125,-0.07078352479000001,-1.3243713184652381,2.6369759287480954,4.515042344095238
1.493925125,-0.22860730955190475,-1.15056831842,2.639887840400476,4.531330339952381
1.503871125,-0.4242007940328571,-0.9186469740914286,2.6280875744904764,4.540311192142857
1.513817125,-0.6557677414090477,-0.6196776404723809,2.6029667100476193,4.525963225619048
1.523763125,-0.8947713447090476,-0.2675078050438095,2.552766219695238,4.490914838761905
1.533709125,-1.0843218710333333,0.06425402257523809,2.4303740827952383,4.473644505190476
1.543655125,-1.2048074528095238,0.29785343424190475,2.238942311447143,4.461451555333333
1.553602125,-1.280549305047619,0.4465223726847619,2.0314553118852383,4.425025292238096
1.563548125,-1.320546933095238,0.5758113274228571,1.8061509552471426,4.352948039190476
1.573494125,-1.3539218654761906,0.7237770964152381,1.5635689116852383,4.257455490190476
1.583440125,-1.4208539406809524,0.8931950466723809,1.3042379121661904,4.149223313190477
1.593386125,-1.5386285861857143,1.0699038901009525,1.021574540047143,4.022787268190476
1.603332125,-1.7053777001380954,1.2267340658976191,0.7252951727838095,3.882899476285714
1.613278125,-1.904407203442857,1.363040904554762,0.4434131296409523,3.7507051415714288
1.623224125,-2.103465859309524,1.4752680459880951,0.18988181278380953,3.654849090571429
1.633170125,-2.283109448133333,1.5672770192738095,-0.013946583930476188,3.614256684952381
1.643116125,-2.4110105523142855,1.6569987288261905,-0.18825982312095238,3.6379037571428565
1.653062125,-2.4812939452380953,1.7642420656309525,-0.33244903912095236,3.7281357933809525
1.663008125,-2.491240170438095,1.8947467121880954,-0.44655776233523803,3.8085957762380955
1.672954125,-2.437570944685714,2.0350318293309524,-0.523739867335238,3.819012037047619
1.682900125,-2.3217402477809523,2.1508152194738095,-0.5722516278780952,3.7597620188095235
1.692846125,-2.150595113552381,2.216246843445238,-0.6162232203542857,3.6503029952857147
1.702792125,-1.9154509510476188,2.2243771740585716,-0.6539076620733334,3.5140244966666665
1.712738125,-1.6060384067619047,2.1794411547061907,-0.676913392835238,3.403757329238095
1.722684125,-1.2367179081904762,2.113149655910952,-0.7151306551447619,3.3296386435714282
1.732630125,-0.8374343554285714,2.0397324895014286,-0.7495903017542856,3.283697184333333
1.742576125,-0.42350881776190474,1.8634941241680953,-0.7192774717828572,3.291922364666667
1.752522125,-0.019813596476190427,1.6864419656252378,-0.7451214401538095,3.335184451285714
1.762468125,0.3935759185238095,1.5641299364585712,-0.8477379030204762,3.4120414067142857
1.772414125,0.7725161448571429,1.4860050096966666,-0.9859136231919047,3.4889459022857143
1.782360125,1.129577398857143,1.4059513092204763,-1.1452476602490476,3.574016233095238
1.792306125,1.4666716087619047,1.2931725804442857,-1.3044703252538095,3.6500207701428566
1.802253125,1.769453661095238,1.1255834165157144,-1.4005472604204763,3.6956785919523805
1.812199125,1.980078527142857,0.9415139587585715,-1.4042432541095238,3.671111436
1.822145125,2.131006050114286,0.7628953311347618,-1.299102687442857,3.639738543285714
1.832091125,2.2770964221714287,0.584646331077619,-1.0778821097285713,3.6794418826666666
1.842037125,2.4555108149,0.40067243355380944,-0.8226012780619049,3.758866861952381
1.851983125,2.6699935346047616,0.21991511722047616,-0.5923250339190476,3.846378561666666
1.861929125,2.899545614985714,0.06080054564904759,-0.3848751781095239,3.925579399
1.871875125,3.1294408155333335,-0.06040251731285718,-0.18836175953809522,4.004837816
1.881821125,3.327968349304762,-0.17009285817000003,-0.01849323958571426,4.07213369152381
1.891767125,3.437168777019048,-0.294123189122381,0.09213736139523812,4.083544705857143
1.901713125,3.401774661828571,-0.43052419576523815,0.1559719437014286,4.122335947333333
1.911659125,3.200323186133333,-0.5695762743285714,0.21571912736333337,4.272585737904762
1.921605125,2.878251169371429,-0.7095149299714285,0.3193988924919048,4.450879706857143
1.931551125,2.5090950054190477,-0.8718971205571429,0.49578087663476195,4.601909737857143
1.941497125,2.125740771657143,-1.0776990082428572,0.6819784981109523,4.7247462394761905
1.951443125,1.7368534012285715,-1.2429915251,0.763899632182381,4.788341972571429
1.961389125,1.3842722281333333,-1.4477173301761905,0.8695136840919049,4.818712097047619
1.971335125,1.0827342962333333,-1.708815612342857,1.0724933435204762,4.810251256571428
1.981281125,0.8611747749333334,-1.971159964009524,1.3458069047109522,4.789037225904762
1.991227125,0.678592904552381,-2.1600711668666666,1.6123367490442857,4.703368552714285
2.001173125,0.5029211622190477,-2.247554283852381,1.7979443586157142,4.533348661619048
2.011119125,0.3427694337904762,-2.2211200242666664,1.8941303878585716,4.367470916380952
2.021065125,0.25156548288571434,-2.1328098882238096,1.9207503383061901,4.303494365523809
2.031011125,0.19029910904285718,-2.022480140409524,1.8751795897633332,4.271772582761905
2.040958125,0.10353592350476193,-1.883552412638095,1.7718158805680952,4.188515000857143
2.050904125,-0.03907855726666666,-1.7047749078285714,1.6811620969490475,4.0932850102380955
2.060850125,-0.24278101607142855,-1.4997407874,1.6287033561871427,4.016132716333333
2.070796125,-0.4859382029285715,-1.3002750818285715,1.5857392685680953,3.957933417333333
2.080742125,-0.7605540782142858,-1.1362616016285716,1.518535019387143,3.9091679779047617
2.090688125,-1.0367917762619048,-0.9867559544857143,1.4257398462238096,3.8930347376666665
2.100634125,-1.258845665738095,-0.8203136244380952,1.3522883761714286,3.9642724297619045
2.110580125,-1.3813330000142856,-0.6343552654857143,1.3045858163414286,4.042971422
2.120526125,-1.3999036455380953,-0.4395656617714285,1.2340860764414285,4.032879449666667
2.130472125,-1.376070951395238,-0.2426066297190476,1.0919681913461905,3.969269202619048
2.140418125,-1.3609809584428572,-0.044090734690476155,0.8940789507747618,3.8855332319047617
2.150364125,-1.3550492365857143,0.17371902290476196,0.6832017634414285,3.7847514368095236
2.160310125,-1.3688209608714286,0.4316606439380952,0.5011669140128571,3.6877574204761907
2.170256125,-1.4289074501095238,0.7202342128095238,0.3224544803461904,3.604464243761904
2.180202042,-1.5479341237333333,1.0039210129809524,0.08811987877476189,3.524507417666667
2.190148042,-1.7001718684809524,1.2392164234666667,-0.1910459099395238,3.4449706710000005
2.200094042,-1.8629242156238095,1.3978770004809524,-0.44178604451095244,3.4094510625714287
2.210040042,-2.0121571597666668,1.4878502795476192,-0.6086275444633334,3.4601434534285715
2.219986042,-2.1501079012904762,1.5228456703190476,-0.7306575986109524,3.538179150619048
2.229932042,-2.2715743952428573,1.5211578018904763,-0.8469071232014287,3.589105643380953
2.239878042,-2.366125069638095,1.4997567419857143,-0.9710430659919047,3.6145687518095238
2.249824042,-2.4252302290238097,1.4669977998428572,-1.1102270967014287,3.617677493904762
2.259770042,-2.4333190165619047,1.4176273078428572,-1.2767503967490477,3.594471152952381
2.269716042,-2.381338466695238,1.355959007557143,-1.4574286086061905,3.5608006054285717
2.279662042,-2.273956968552381,1.2890087503190475,-1.629566600034762,3.5316934322380953
2.289609042,-2.1160439441238093,1.219137864557143,-1.7721934156633334,3.5050090709523807
2.299555042,-1.9116827825523808,1.1518639778428572,-1.8627971359761903,3.470837958571428
2.309501042,-1.6601585363619047,1.1013704863190477,-1.8943419734285716,3.4274954132380953
2.319447042,-1.3771891616952383,1.065954235252381,-1.8812022774761907,3.3670457769523807
2.329393042,-1.0973380793142855,1.000842091995238,-1.8556626140428574,3.265365069952381
2.339339042,-0.824454650504762,0.8609270479428571,-1.8414754868523808,3.184535755238095
2.349285042,-0.5334405651714286,0.6482815233904762,-1.8665610722333332,3.1911887091904765
2.359231042,-0.2254308236,0.39362492379523806,-1.9592306694714285,3.28585392452381
2.369177042,0.0880279939238095,0.14618075333333336,-2.090243717519048,3.4155863078095243
2.379123042,0.41657800173333337,-0.057659699776190454,-2.2231479221857144,3.5430643470952377
2.389069042,0.7573999229714286,-0.18895221685238092,-2.347872818852381,3.6651938843809524
2.399015042,1.078871792638095,-0.27140291376666664,-2.4620655992809524,3.790860340714285
2.408961042,1.3490680082095237,-0.3712623031142857,-2.539323968661905,3.888954355523809
2.418907042,1.5304791546380951,-0.5420207414666667,-2.550783898757143,3.9358547032380953
